LabVIEW Measurement	
Writer_Version	2
Reader_Version	2
Separator	Tab
Decimal_Separator	.
Multi_Headings	Yes
X_Columns	One
Time_Pref	Relative
Operator	as989
Description	Time Domain Data
Date	2021/11/24
Time	13:31:58.1513438224792480469
***End_of_Header***	
	
Channels	1	
Samples	15000	
Date	1903/12/31	
Time	19:00:00	
X_Dimension	Time	
X0	0.0000000000000000E+0	
Delta_X	0.000100	
***End_of_Header***		
X_Value	Untitled	Comment
0.000000	-1.955496	Tare Values:0.000000, 0.000000, 0.000000, 0.000000\0D\0A
0.000100	-1.933749
0.000200	-1.937319
0.000300	-1.942188
0.000400	-1.932775
0.000500	-1.895123
0.000600	-1.901291
0.000700	-1.889281
0.000800	-1.907133
0.000900	-1.887983
0.001000	-1.886360
0.001100	-1.905186
0.001200	-1.865586
0.001300	-1.772756
0.001400	-1.654932
0.001500	-1.604622
0.001600	-1.702321
0.001700	-1.734780
0.001800	-1.775352
0.001900	-1.687391
0.002000	-1.597481
0.002100	-1.516985
0.002200	-1.535486
0.002300	-1.590016
0.002400	-1.584498
0.002500	-1.543600
0.002600	-1.459534
0.002700	-1.388450
0.002800	-1.337815
0.002900	-1.362159
0.003000	-1.373519
0.003100	-1.378388
0.003200	-1.339114
0.003300	-1.308927
0.003400	-1.288803
0.003500	-1.271600
0.003600	-1.249529
0.003700	-1.279066
0.003800	-1.262512
0.003900	-1.270627
0.004000	-1.270627
0.004100	-1.273548
0.004200	-1.270302
0.004300	-1.239142
0.004400	-1.244335
0.004500	-1.344631
0.004600	-1.397214
0.004700	-1.382608
0.004800	-1.304059
0.004900	-1.226808
0.005000	-1.237519
0.005100	-1.325156
0.005200	-1.395591
0.005300	-1.382932
0.005400	-1.299839
0.005500	-1.223887
0.005600	-1.220966
0.005700	-1.262837
0.005800	-1.286531
0.005900	-1.271276
0.006000	-1.269328
0.006100	-1.233300
0.006200	-1.247257
0.006300	-1.243037
0.006400	-1.258617
0.006500	-1.244335
0.006600	-1.229729
0.006700	-1.234923
0.006800	-1.239791
0.006900	-1.227133
0.007000	-1.226159
0.007100	-1.209281
0.007200	-1.203438
0.007300	-1.240441
0.007400	-1.263486
0.007500	-1.290751
0.007600	-1.254722
0.007700	-1.230378
0.007800	-1.243686
0.007900	-1.243037
0.008000	-1.226808
0.008100	-1.222264
0.008200	-1.227457
0.008300	-1.228756
0.008400	-1.238818
0.008500	-1.238168
0.008600	-1.246608
0.008700	-1.244660
0.008800	-1.261214
0.008900	-1.242063
0.009000	-1.257643
0.009100	-1.250827
0.009200	-1.276145
0.009300	-1.281662
0.009400	-1.288154
0.009500	-1.318665
0.009600	-1.356966
0.009700	-1.487123
0.009800	-1.576059
0.009900	-1.546522
0.010000	-1.467648
0.010100	-1.427075
0.010200	-1.490044
0.010300	-1.604622
0.010400	-1.721147
0.010500	-1.754579
0.010600	-1.708488
0.010700	-1.685118
0.010800	-1.704269
0.010900	-1.778923
0.011000	-1.850006
0.011100	-1.888632
0.011200	-1.883439
0.011300	-1.882140
0.011400	-1.878570
0.011500	-1.903887
0.011600	-1.913625
0.011700	-1.937319
0.011800	-1.951276
0.011900	-1.953224
0.012000	-1.967505
0.012100	-2.020737
0.012200	-2.032422
0.012300	-2.023009
0.012400	-2.026255
0.012500	-2.063257
0.012600	-2.108374
0.012700	-2.110971
0.012800	-2.059038
0.012900	-2.002236
0.013000	-2.033720
0.013100	-2.140508
0.013200	-2.204776
0.013300	-2.224900
0.013400	-2.162580
0.013500	-2.098312
0.013600	-2.111620
0.013700	-2.197959
0.013800	-2.308642
0.013900	-2.362848
0.014000	-2.348891
0.014100	-2.303774
0.014200	-2.288518
0.014300	-2.291764
0.014400	-2.309941
0.014500	-2.302475
0.014600	-2.306695
0.014700	-2.291764
0.014800	-2.294361
0.014900	-2.269692
0.015000	-2.228470
0.015100	-2.168422
0.015200	-2.130771
0.015300	-2.095716
0.015400	-2.077864
0.015500	-2.062608
0.015600	-2.016842
0.015700	-1.955496
0.015800	-1.886684
0.015900	-1.828584
0.016000	-1.791257
0.016100	-1.753930
0.016200	-1.712059
0.016300	-1.652660
0.016400	-1.578980
0.016500	-1.526073
0.016600	-1.492966
0.016700	-1.471219
0.016800	-1.451744
0.016900	-1.443629
0.017000	-1.434541
0.017100	-1.429672
0.017200	-1.418961
0.017300	-1.395915
0.017400	-1.384555
0.017500	-1.363457
0.017600	-1.377739
0.017700	-1.382932
0.017800	-1.368326
0.017900	-1.291400
0.018000	-1.218369
0.018100	-1.097949
0.018200	-1.121319
0.018300	-1.223887
0.018400	-1.298216
0.018500	-1.278092
0.018600	-1.208956
0.018700	-1.109634
0.018800	-1.100221
0.018900	-1.144364
0.019000	-1.196622
0.019100	-1.193376
0.019200	-1.142417
0.019300	-1.068737
0.019400	-1.033682
0.019500	-1.025243
0.019600	-1.051534
0.019700	-1.048612
0.019800	-1.057376
0.019900	-1.029787
0.020000	-0.995706
0.020100	-0.998627
0.020200	-0.982398
0.020300	-0.975257
0.020400	-0.964870
0.020500	-1.022646
0.020600	-0.972660
0.020700	-0.994407
0.020800	-0.973634
0.020900	-0.937930
0.021000	-0.906445
0.021100	-0.945071
0.021200	-1.071982
0.021300	-1.106388
0.021400	-1.056078
0.021500	-0.955457
0.021600	-0.918130
0.021700	-0.948317
0.021800	-1.043095
0.021900	-1.082369
0.022000	-1.064842
0.022100	-0.976231
0.022200	-0.911314
0.022300	-0.929491
0.022400	-0.990837
0.022500	-1.011935
0.022600	-1.015505
0.022700	-1.027839
0.022800	-1.032708
0.022900	-1.046016
0.023000	-1.084966
0.023100	-1.088211
0.023200	-1.095028
0.023300	-1.087887
0.023400	-1.110932
0.023500	-1.110283
0.023600	-1.099896
0.023700	-1.078149
0.023800	-1.055429
0.023900	-1.075228
0.024000	-1.106388
0.024100	-1.138197
0.024200	-1.145338
0.024300	-1.095677
0.024400	-1.117424
0.024500	-1.120994
0.024600	-1.132679
0.024700	-1.142741
0.024800	-1.127161
0.024900	-1.123915
0.025000	-1.133978
0.025100	-1.116775
0.025200	-1.130732
0.025300	-1.122617
0.025400	-1.134627
0.025500	-1.120670
0.025600	-1.127486
0.025700	-1.137223
0.025800	-1.136250
0.025900	-1.141443
0.026000	-1.166111
0.026100	-1.200841
0.026200	-1.227457
0.026300	-1.299514
0.026400	-1.434216
0.026500	-1.465051
0.026600	-1.420908
0.026700	-1.305682
0.026800	-1.299190
0.026900	-1.364756
0.027000	-1.469271
0.027100	-1.544250
0.027200	-1.544899
0.027300	-1.483877
0.027400	-1.444603
0.027500	-1.501405
0.027600	-1.603324
0.027700	-1.668240
0.027800	-1.693233
0.027900	-1.710760
0.028000	-1.706865
0.028100	-1.734780
0.028200	-1.783142
0.028300	-1.834426
0.028400	-1.861691
0.028500	-1.888307
0.028600	-1.902264
0.028700	-1.917844
0.028800	-1.965883
0.028900	-1.979515
0.029000	-2.028202
0.029100	-2.032097
0.029200	-2.060012
0.029300	-2.076890
0.029400	-2.061959
0.029500	-1.997692
0.029600	-1.956145
0.029700	-2.023009
0.029800	-2.099935
0.029900	-2.150246
0.030000	-2.110647
0.030100	-2.019114
0.030200	-1.954847
0.030300	-2.004833
0.030400	-2.109348
0.030500	-2.165177
0.030600	-2.164852
0.030700	-2.107076
0.030800	-2.084680
0.030900	-2.077215
0.031000	-2.071372
0.031100	-2.068126
0.031200	-2.075592
0.031300	-2.053520
0.031400	-2.049300
0.031500	-2.030150
0.031600	-2.002236
0.031700	-1.953873
0.031800	-1.894799
0.031900	-1.861042
0.032000	-1.832804
0.032100	-1.811706
0.032200	-1.789959
0.032300	-1.714980
0.032400	-1.660775
0.032500	-1.569242
0.032600	-1.534188
0.032700	-1.521204
0.032800	-1.479658
0.032900	-1.435839
0.033000	-1.383581
0.033100	-1.345930
0.033200	-1.297567
0.033300	-1.268030
0.033400	-1.264784
0.033500	-1.269653
0.033600	-1.263486
0.033700	-1.268030
0.033800	-1.226159
0.033900	-1.208956
0.034000	-1.186560
0.034100	-1.147610
0.034200	-1.167409
0.034300	-1.134951
0.034400	-1.168059
0.034500	-1.108985
0.034600	-1.084966
0.034700	-0.944746
0.034800	-0.865224
0.034900	-0.927543
0.035000	-0.996679
0.035100	-1.059648
0.035200	-1.012908
0.035300	-0.918130
0.035400	-0.805176
0.035500	-0.779534
0.035600	-0.863601
0.035700	-0.885672
0.035800	-0.885023
0.035900	-0.792842
0.036000	-0.756164
0.036100	-0.733119
0.036200	-0.745128
0.036300	-0.761357
0.036400	-0.748049
0.036500	-0.735715
0.036600	-0.710073
0.036700	-0.694169
0.036800	-0.673720
0.036900	-0.651649
0.037000	-0.664956
0.037100	-0.641262
0.037200	-0.678264
0.037300	-0.656517
0.037400	-0.679563
0.037500	-0.643209
0.037600	-0.618217
0.037700	-0.605233
0.037800	-0.674694
0.037900	-0.783104
0.038000	-0.774016
0.038100	-0.710398
0.038200	-0.624059
0.038300	-0.623085
0.038400	-0.707152
0.038500	-0.800632
0.038600	-0.799658
0.038700	-0.756164
0.038800	-0.651649
0.038900	-0.649377
0.039000	-0.669825
0.039100	-0.741882
0.039200	-0.735715
0.039300	-0.736365
0.039400	-0.713644
0.039500	-0.725329
0.039600	-0.745777
0.039700	-0.778885
0.039800	-0.781481
0.039900	-0.788622
0.040000	-0.803553
0.040100	-0.833090
0.040200	-0.861004
0.040300	-0.820431
0.040400	-0.791219
0.040500	-0.763305
0.040600	-0.798684
0.040700	-0.858407
0.040800	-0.851267
0.040900	-0.826923
0.041000	-0.792193
0.041100	-0.788622
0.041200	-0.797710
0.041300	-0.785052
0.041400	-0.804851
0.041500	-0.785701
0.041600	-0.792517
0.041700	-0.803553
0.041800	-0.791219
0.041900	-0.777911
0.042000	-0.762006
0.042100	-0.766226
0.042200	-0.775964
0.042300	-0.753567
0.042400	-0.762331
0.042500	-0.761357
0.042600	-0.778236
0.042700	-0.821405
0.042800	-0.820107
0.042900	-0.849319
0.043000	-0.943772
0.043100	-1.056727
0.043200	-1.073281
0.043300	-0.993758
0.043400	-0.913262
0.043500	-0.918130
0.043600	-1.026216
0.043700	-1.165137
0.043800	-1.201166
0.043900	-1.155725
0.044000	-1.113204
0.044100	-1.109309
0.044200	-1.178770
0.044300	-1.249204
0.044400	-1.318665
0.044500	-1.331648
0.044600	-1.333271
0.044700	-1.349500
0.044800	-1.355667
0.044900	-1.377739
0.045000	-1.399486
0.045100	-1.402407
0.045200	-1.427725
0.045300	-1.449147
0.045400	-1.500106
0.045500	-1.504975
0.045600	-1.556584
0.045700	-1.563725
0.045800	-1.597806
0.045900	-1.637405
0.046000	-1.645844
0.046100	-1.600402
0.046200	-1.530617
0.046300	-1.530617
0.046400	-1.636106
0.046500	-1.699076
0.046600	-1.742245
0.046700	-1.704593
0.046800	-1.612412
0.046900	-1.600727
0.047000	-1.667591
0.047100	-1.786388
0.047200	-1.842866
0.047300	-1.828584
0.047400	-1.805863
0.047500	-1.779897
0.047600	-1.788011
0.047700	-1.827610
0.047800	-1.818522
0.047900	-1.808135
0.048000	-1.792231
0.048100	-1.776975
0.048200	-1.763018
0.048300	-1.725691
0.048400	-1.681548
0.048500	-1.625720
0.048600	-1.581577
0.048700	-1.554961
0.048800	-1.534837
0.048900	-1.497834
0.049000	-1.423830
0.049100	-1.387801
0.049200	-1.301462
0.049300	-1.271925
0.049400	-1.256994
0.049500	-1.209930
0.049600	-1.156374
0.049700	-1.104441
0.049800	-1.034980
0.049900	-0.999276
0.050000	-0.968765
0.050100	-0.956756
0.050200	-0.947018
0.050300	-0.937281
0.050400	-0.926245
0.050500	-0.902226
0.050600	-0.862627
0.050700	-0.865873
0.050800	-0.834388
0.050900	-0.822379
0.051000	-0.848021
0.051100	-0.818808
0.051200	-0.817510
0.051300	-0.701634
0.051400	-0.601014
0.051500	-0.532527
0.051600	-0.652947
0.051700	-0.716890
0.051800	-0.766226
0.051900	-0.680536
0.052000	-0.570179
0.052100	-0.509806
0.052200	-0.562713
0.052300	-0.623735
0.052400	-0.642560
0.052500	-0.629902
0.052600	-0.556871
0.052700	-0.506236
0.052800	-0.495200
0.052900	-0.502666
0.053000	-0.502341
0.053100	-0.510456
0.053200	-0.503315
0.053300	-0.475401
0.053400	-0.470532
0.053500	-0.447162
0.053600	-0.446837
0.053700	-0.476050
0.053800	-0.500069
0.053900	-0.517921
0.054000	-0.522140
0.054100	-0.506561
0.054200	-0.496174
0.054300	-0.483840
0.054400	-0.494876
0.054500	-0.593224
0.054600	-0.651649
0.054700	-0.638341
0.054800	-0.537396
0.054900	-0.483840
0.055000	-0.476374
0.055100	-0.539343
0.055200	-0.613023
0.055300	-0.567582
0.055400	-0.468260
0.055500	-0.382570
0.055600	-0.371210
0.055700	-0.428336
0.055800	-0.464365
0.055900	-0.448136
0.056000	-0.438723
0.056100	-0.412107
0.056200	-0.460794
0.056300	-0.442942
0.056400	-0.462093
0.056500	-0.463391
0.056600	-0.445215
0.056700	-0.455277
0.056800	-0.465339
0.056900	-0.459821
0.057000	-0.427038
0.057100	-0.393931
0.057200	-0.411458
0.057300	-0.450083
0.057400	-0.477024
0.057500	-0.491954
0.057600	-0.468909
0.057700	-0.438723
0.057800	-0.452680
0.057900	-0.446513
0.058000	-0.448460
0.058100	-0.460145
0.058200	-0.471506
0.058300	-0.464040
0.058400	-0.457224
0.058500	-0.447487
0.058600	-0.443916
0.058700	-0.444565
0.058800	-0.434503
0.058900	-0.458198
0.059000	-0.454303
0.059100	-0.462093
0.059200	-0.474427
0.059300	-0.493253
0.059400	-0.504613
0.059500	-0.529281
0.059600	-0.573100
0.059700	-0.713319
0.059800	-0.811018
0.059900	-0.799983
0.060000	-0.738637
0.060100	-0.682484
0.060200	-0.733768
0.060300	-0.855811
0.060400	-0.969414
0.060500	-0.978827
0.060600	-0.956107
0.060700	-0.898655
0.060800	-0.923648
0.060900	-1.002522
0.061000	-1.073930
0.061100	-1.086589
0.061200	-1.093080
0.061300	-1.087238
0.061400	-1.085615
0.061500	-1.094379
0.061600	-1.125214
0.061700	-1.135600
0.061800	-1.161567
0.061900	-1.187534
0.062000	-1.207333
0.062100	-1.216421
0.062200	-1.268679
0.062300	-1.278092
0.062400	-1.290426
0.062500	-1.304383
0.062600	-1.323209
0.062700	-1.320288
0.062800	-1.253099
0.062900	-1.212202
0.063000	-1.243686
0.063100	-1.340087
0.063200	-1.409548
0.063300	-1.415390
0.063400	-1.345281
0.063500	-1.296269
0.063600	-1.309577
0.063700	-1.398837
0.063800	-1.491992
0.063900	-1.523152
0.064000	-1.503028
0.064100	-1.464078
0.064200	-1.458884
0.064300	-1.464078
0.064400	-1.485825
0.064500	-1.502054
0.064600	-1.485500
0.064700	-1.479658
0.064800	-1.462455
0.064900	-1.426426
0.065000	-1.365729
0.065100	-1.328402
0.065200	-1.272899
0.065300	-1.220641
0.065400	-1.219018
0.065500	-1.190779
0.065600	-1.114178
0.065700	-1.071009
0.065800	-0.989538
0.065900	-0.937605
0.066000	-0.893138
0.066100	-0.869443
0.066200	-0.817835
0.066300	-0.764603
0.066400	-0.698388
0.066500	-0.659114
0.066600	-0.607830
0.066700	-0.593548
0.066800	-0.581214
0.066900	-0.582188
0.067000	-0.572126
0.067100	-0.553300
0.067200	-0.547782
0.067300	-0.534150
0.067400	-0.534799
0.067500	-0.511429
0.067600	-0.496174
0.067700	-0.527983
0.067800	-0.514026
0.067900	-0.470207
0.068000	-0.367640
0.068100	-0.299802
0.068200	-0.294609
0.068300	-0.418599
0.068400	-0.460794
0.068500	-0.455277
0.068600	-0.305644
0.068700	-0.221902
0.068800	-0.185225
0.068900	-0.245272
0.069000	-0.286170
0.069100	-0.295258
0.069200	-0.234561
0.069300	-0.192365
0.069400	-0.145950
0.069500	-0.139783
0.069600	-0.140432
0.069700	-0.138485
0.069800	-0.126800
0.069900	-0.113492
0.070000	-0.111220
0.070100	-0.094991
0.070200	-0.080385
0.070300	-0.097912
0.070400	-0.093043
0.070500	-0.124203
0.070600	-0.112194
0.070700	-0.118361
0.070800	-0.108948
0.070900	-0.088175
0.071000	-0.078437
0.071100	-0.122580
0.071200	-0.246246
0.071300	-0.278704
0.071400	-0.244298
0.071500	-0.171592
0.071600	-0.172241
0.071700	-0.225148
0.071800	-0.346542
0.071900	-0.389386
0.072000	-0.363095
0.072100	-0.284547
0.072200	-0.274809
0.072300	-0.323496
0.072400	-0.374780
0.072500	-0.381597
0.072600	-0.382246
0.072700	-0.382570
0.072800	-0.375429
0.072900	-0.404966
0.073000	-0.392957
0.073100	-0.407888
0.073200	-0.390036
0.073300	-0.378026
0.073400	-0.375105
0.073500	-0.361472
0.073600	-0.315706
0.073700	-0.289740
0.073800	-0.267344
0.073900	-0.280976
0.074000	-0.309539
0.074100	-0.333234
0.074200	-0.326742
0.074300	-0.263773
0.074400	-0.261501
0.074500	-0.259554
0.074600	-0.237807
0.074700	-0.235859
0.074800	-0.231640
0.074900	-0.215411
0.075000	-0.220929
0.075100	-0.215411
0.075200	-0.218981
0.075300	-0.219306
0.075400	-0.222876
0.075500	-0.226771
0.075600	-0.223850
0.075700	-0.233912
0.075800	-0.235210
0.075900	-0.260852
0.076000	-0.263449
0.076100	-0.305644
0.076200	-0.352384
0.076300	-0.473453
0.076400	-0.597443
0.076500	-0.638016
0.076600	-0.630875
0.076700	-0.540317
0.076800	-0.574398
0.076900	-0.697739
0.077000	-0.846398
0.077100	-0.922350
0.077200	-0.916832
0.077300	-0.872689
0.077400	-0.851916
0.077500	-0.918780
0.077600	-1.009338
0.077700	-1.054779
0.077800	-1.059648
0.077900	-1.053806
0.078000	-1.035629
0.078100	-1.043419
0.078200	-1.069710
0.078300	-1.096975
0.078400	-1.086913
0.078500	-1.093729
0.078600	-1.112880
0.078700	-1.108011
0.078800	-1.147610
0.078900	-1.163515
0.079000	-1.157997
0.079100	-1.162216
0.079200	-1.178770
0.079300	-1.197596
0.079400	-1.179094
0.079500	-1.102818
0.079600	-1.082694
0.079700	-1.145338
0.079800	-1.242388
0.079900	-1.308603
0.080000	-1.273223
0.080100	-1.191429
0.080200	-1.176173
0.080300	-1.224861
0.080400	-1.346254
0.080500	-1.416689
0.080600	-1.417338
0.080700	-1.366703
0.080800	-1.345605
0.080900	-1.360211
0.081000	-1.378063
0.081100	-1.392020
0.081200	-1.382283
0.081300	-1.352421
0.081400	-1.372546
0.081500	-1.349825
0.081600	-1.331648
0.081700	-1.269004
0.081800	-1.219992
0.081900	-1.184612
0.082000	-1.151505
0.082100	-1.137548
0.082200	-1.106388
0.082300	-1.042445
0.082400	-0.987916
0.082500	-0.873014
0.082600	-0.847696
0.082700	-0.839582
0.082800	-0.806150
0.082900	-0.751620
0.083000	-0.707801
0.083100	-0.654245
0.083200	-0.612699
0.083300	-0.589653
0.083400	-0.603611
0.083500	-0.607181
0.083600	-0.592250
0.083700	-0.597119
0.083800	-0.565634
0.083900	-0.582837
0.084000	-0.551028
0.084100	-0.559143
0.084200	-0.552002
0.084300	-0.579267
0.084400	-0.564336
0.084500	-0.572775
0.084600	-0.479296
0.084700	-0.397826
0.084800	-0.292986
0.084900	-0.384842
0.085000	-0.431907
0.085100	-0.451382
0.085200	-0.379649
0.085300	-0.262800
0.085400	-0.182953
0.085500	-0.187172
0.085600	-0.246571
0.085700	-0.271563
0.085800	-0.253387
0.085900	-0.193988
0.086000	-0.109597
0.086100	-0.092394
0.086200	-0.110246
0.086300	-0.125826
0.086400	-0.142055
0.086500	-0.148871
0.086600	-0.145301
0.086700	-0.135239
0.086800	-0.128098
0.086900	-0.095640
0.087000	-0.097588
0.087100	-0.113492
0.087200	-0.094342
0.087300	-0.124528
0.087400	-0.108948
0.087500	-0.094666
0.087600	-0.092070
0.087700	-0.084929
0.087800	-0.170618
0.087900	-0.268967
0.088000	-0.260528
0.088100	-0.201454
0.088200	-0.119010
0.088300	-0.118036
0.088400	-0.214437
0.088500	-0.304021
0.088600	-0.313759
0.088700	-0.231964
0.088800	-0.153740
0.088900	-0.106351
0.089000	-0.150494
0.089100	-0.198532
0.089200	-0.176785
0.089300	-0.180680
0.089400	-0.152117
0.089500	-0.166074
0.089600	-0.175812
0.089700	-0.201129
0.089800	-0.195611
0.089900	-0.191716
0.090000	-0.193339
0.090100	-0.194962
0.090200	-0.187172
0.090300	-0.160232
0.090400	-0.171268
0.090500	-0.166723
0.090600	-0.210867
0.090700	-0.254036
0.090800	-0.264423
0.090900	-0.252738
0.091000	-0.228394
0.091100	-0.237158
0.091200	-0.256957
0.091300	-0.266370
0.091400	-0.272862
0.091500	-0.271563
0.091600	-0.288766
0.091700	-0.305644
0.091800	-0.317979
0.091900	-0.350437
0.092000	-0.381921
0.092100	-0.397176
0.092200	-0.425415
0.092300	-0.443592
0.092400	-0.458847
0.092500	-0.480594
0.092600	-0.494551
0.092700	-0.515324
0.092800	-0.513052
0.092900	-0.550054
0.093000	-0.628928
0.093100	-0.696766
0.093200	-0.662035
0.093300	-0.568556
0.093400	-0.499744
0.093500	-0.514026
0.093600	-0.618217
0.093700	-0.721109
0.093800	-0.741558
0.093900	-0.690598
0.094000	-0.637367
0.094100	-0.631849
0.094200	-0.705854
0.094300	-0.791219
0.094400	-0.844126
0.094500	-0.866197
0.094600	-0.841529
0.094700	-0.843801
0.094800	-0.856460
0.094900	-0.899629
0.095000	-0.931114
0.095100	-0.973309
0.095200	-1.003171
0.095300	-1.006741
0.095400	-1.016154
0.095500	-1.046990
0.095600	-1.064842
0.095700	-1.097624
0.095800	-1.125863
0.095900	-1.146961
0.096000	-1.150207
0.096100	-1.111906
0.096200	-1.067438
0.096300	-1.096326
0.096400	-1.206684
0.096500	-1.306331
0.096600	-1.346903
0.096700	-1.297892
0.096800	-1.224536
0.096900	-1.218369
0.097000	-1.289777
0.097100	-1.394293
0.097200	-1.458560
0.097300	-1.449147
0.097400	-1.406627
0.097500	-1.376765
0.097600	-1.406302
0.097700	-1.433242
0.097800	-1.444603
0.097900	-1.431944
0.098000	-1.416364
0.098100	-1.406951
0.098200	-1.390073
0.098300	-1.356641
0.098400	-1.301787
0.098500	-1.258617
0.098600	-1.235896
0.098700	-1.210254
0.098800	-1.197596
0.098900	-1.138197
0.099000	-1.059324
0.099100	-1.030111
0.099200	-0.921701
0.099300	-0.904498
0.099400	-0.873014
0.099500	-0.829844
0.099600	-0.795763
0.099700	-0.727925
0.099800	-0.670799
0.099900	-0.615945
0.100000	-0.580890
0.100100	-0.586732
0.100200	-0.563362
0.100300	-0.545186
0.100400	-0.522140
0.100500	-0.477348
0.100600	-0.465988
0.100700	-0.420871
0.100800	-0.408537
0.100900	-0.401071
0.101000	-0.424117
0.101100	-0.403993
0.101200	-0.331936
0.101300	-0.281950
0.101400	-0.114790
0.101500	-0.155038
0.101600	-0.194962
0.101700	-0.292337
0.101800	-0.291687
0.101900	-0.212814
0.102000	-0.098561
0.102100	-0.034619
0.102200	-0.077463
0.102300	-0.089473
0.102400	-0.134914
0.102500	-0.041110
0.102600	0.006603
0.102700	0.068923
0.102800	0.071520
0.102900	0.086126
0.103000	0.077037
0.103100	0.054317
0.103200	0.078660
0.103300	0.122154
0.103400	0.130918
0.103500	0.124751
0.103600	0.161104
0.103700	0.140655
0.103800	0.139032
0.103900	0.127672
0.104000	0.116636
0.104100	0.120856
0.104200	0.139357
0.104300	0.156560
0.104400	0.152665
0.104500	0.036465
0.104600	-0.002810
0.104700	0.028026
0.104800	0.129295
0.104900	0.186421
0.105000	0.162078
0.105100	0.079634
0.105200	0.014069
0.105300	0.051071
0.105400	0.150393
0.105500	0.214985
0.105600	0.213037
0.105700	0.167920
0.105800	0.152665
0.105900	0.155586
0.106000	0.176684
0.106100	0.208493
0.106200	0.183500
0.106300	0.197133
0.106400	0.203949
0.106500	0.201677
0.106600	0.215309
0.106700	0.193238
0.106800	0.170517
0.106900	0.185123
0.107000	0.213686
0.107100	0.249066
0.107200	0.243548
0.107300	0.194536
0.107400	0.160130
0.107500	0.155262
0.107600	0.206221
0.107700	0.210765
0.107800	0.211414
0.107900	0.205896
0.108000	0.223748
0.108100	0.200703
0.108200	0.202001
0.108300	0.194211
0.108400	0.170192
0.108500	0.181553
0.108600	0.174736
0.108700	0.162078
0.108800	0.160130
0.108900	0.120856
0.109000	0.121830
0.109100	0.102355
0.109200	0.073142
0.109300	0.062756
0.109400	0.029324
0.109500	0.005629
0.109600	-0.083306
0.109700	-0.206322
0.109800	-0.286819
0.109900	-0.249816
0.110000	-0.192690
0.110100	-0.159583
0.110200	-0.243325
0.110300	-0.380623
0.110400	-0.478971
0.110500	-0.497472
0.110600	-0.457873
0.110700	-0.400747
0.110800	-0.428661
0.110900	-0.514350
0.111000	-0.580890
0.111100	-0.602961
0.111200	-0.619840
0.111300	-0.622112
0.111400	-0.633472
0.111500	-0.646780
0.111600	-0.671124
0.111700	-0.701310
0.111800	-0.730522
0.111900	-0.764603
0.112000	-0.787973
0.112100	-0.816861
0.112200	-0.836336
0.112300	-0.846722
0.112400	-0.855811
0.112500	-0.873663
0.112600	-0.900928
0.112700	-0.859381
0.112800	-0.787973
0.112900	-0.753567
0.113000	-0.783429
0.113100	-0.895085
0.113200	-0.946369
0.113300	-0.947667
0.113400	-0.875935
0.113500	-0.816536
0.113600	-0.824326
0.113700	-0.916508
0.113800	-1.014531
0.113900	-1.051209
0.114000	-1.029462
0.114100	-0.999276
0.114200	-0.986942
0.114300	-1.016803
0.114400	-1.056078
0.114500	-1.062245
0.114600	-1.070359
0.114700	-1.066789
0.114800	-1.073605
0.114900	-1.069061
0.115000	-1.023620
0.115100	-0.964221
0.115200	-0.935658
0.115300	-0.900278
0.115400	-0.894111
0.115500	-0.881128
0.115600	-0.818484
0.115700	-0.755190
0.115800	-0.681186
0.115900	-0.655219
0.116000	-0.629902
0.116100	-0.583811
0.116200	-0.538045
0.116300	-0.472155
0.116400	-0.423792
0.116500	-0.343945
0.116600	-0.313110
0.116700	-0.287468
0.116800	-0.263449
0.116900	-0.257606
0.117000	-0.266695
0.117100	-0.222551
0.117200	-0.191392
0.117300	-0.169320
0.117400	-0.144976
0.117500	-0.139783
0.117600	-0.113167
0.117700	-0.142380
0.117800	-0.093693
0.117900	-0.065129
0.118000	0.061457
0.118100	0.126374
0.118200	0.141305
0.118300	0.041009
0.118400	-0.011898
0.118500	0.028350
0.118600	0.132865
0.118700	0.226670
0.118800	0.236082
0.118900	0.198756
0.119000	0.158183
0.119100	0.202326
0.119200	0.258803
0.119300	0.325018
0.119400	0.361371
0.119500	0.371757
0.119600	0.364941
0.119700	0.357800
0.119800	0.359748
0.119900	0.372407
0.120000	0.394154
0.120100	0.386039
0.120200	0.400970
0.120300	0.399672
0.120400	0.399022
0.120500	0.383118
0.120600	0.362994
0.120700	0.358774
0.120800	0.365915
0.120900	0.369485
0.121000	0.385715
0.121100	0.318526
0.121200	0.222450
0.121300	0.195185
0.121400	0.223099
0.121500	0.313008
0.121600	0.333457
0.121700	0.289638
0.121800	0.186421
0.121900	0.147147
0.122000	0.188044
0.122100	0.245820
0.122200	0.283471
0.122300	0.239328
0.122400	0.202975
0.122500	0.193887
0.122600	0.178956
0.122700	0.207519
0.122800	0.214660
0.122900	0.184149
0.123000	0.177333
0.123100	0.164350
0.123200	0.200703
0.123300	0.203624
0.123400	0.193562
0.123500	0.192913
0.123600	0.197457
0.123700	0.201352
0.123800	0.213362
0.123900	0.180904
0.124000	0.134488
0.124100	0.116961
0.124200	0.121180
0.124300	0.172140
0.124400	0.176684
0.124500	0.166947
0.124600	0.155911
0.124700	0.162402
0.124800	0.173438
0.124900	0.175061
0.125000	0.185772
0.125100	0.194861
0.125200	0.188693
0.125300	0.205572
0.125400	0.187720
0.125500	0.185772
0.125600	0.187071
0.125700	0.194536
0.125800	0.214011
0.125900	0.185123
0.126000	0.177982
0.126100	0.157209
0.126200	0.123777
0.126300	0.049123
0.126400	-0.071946
0.126500	-0.091420
0.126600	-0.045005
0.126700	0.009524
0.126800	0.013419
0.126900	-0.086876
0.127000	-0.213788
0.127100	-0.252088
0.127200	-0.204050
0.127300	-0.174189
0.127400	-0.160232
0.127500	-0.211840
0.127600	-0.300776
0.127700	-0.361797
0.127800	-0.385492
0.127900	-0.384842
0.128000	-0.412107
0.128100	-0.444565
0.128200	-0.489682
0.128300	-0.531553
0.128400	-0.565634
0.128500	-0.594847
0.128600	-0.612374
0.128700	-0.661061
0.128800	-0.699362
0.128900	-0.722083
0.129000	-0.734417
0.129100	-0.763629
0.129200	-0.799658
0.129300	-0.799983
0.129400	-0.788298
0.129500	-0.709424
0.129600	-0.712995
0.129700	-0.773042
0.129800	-0.849968
0.129900	-0.911963
0.130000	-0.870092
0.130100	-0.795114
0.130200	-0.753243
0.130300	-0.793166
0.130400	-0.891839
0.130500	-0.925920
0.130600	-0.924622
0.130700	-0.883725
0.130800	-0.844775
0.130900	-0.830493
0.131000	-0.848994
0.131100	-0.844126
0.131200	-0.821405
0.131300	-0.804851
0.131400	-0.792193
0.131500	-0.763305
0.131600	-0.731171
0.131700	-0.641911
0.131800	-0.587057
0.131900	-0.553625
0.132000	-0.519219
0.132100	-0.497148
0.132200	-0.437100
0.132300	-0.349463
0.132400	-0.289415
0.132500	-0.195611
0.132600	-0.166723
0.132700	-0.136862
0.132800	-0.086552
0.132900	-0.046304
0.133000	0.016016
0.133100	0.060484
0.133200	0.099758
0.133300	0.133515
0.133400	0.143577
0.133500	0.154288
0.133600	0.148121
0.133700	0.141629
0.133800	0.159806
0.133900	0.169868
0.134000	0.194536
0.134100	0.172140
0.134200	0.195510
0.134300	0.184474
0.134400	0.195510
0.134500	0.204273
0.134600	0.298727
0.134700	0.412979
0.134800	0.490554
0.134900	0.419471
0.135000	0.361371
0.135100	0.344817
0.135200	0.441218
0.135300	0.597991
0.135400	0.661933
0.135500	0.670697
0.135600	0.623308
0.135700	0.636616
0.135800	0.692769
0.135900	0.770668
0.136000	0.854735
0.136100	0.884921
0.136200	0.902124
0.136300	0.883298
0.136400	0.901475
0.136500	0.925494
0.136600	0.928090
0.136700	0.941723
0.136800	0.948864
0.136900	0.958926
0.137000	0.898553
0.137100	0.922572
0.137200	0.888491
0.137300	0.878105
0.137400	0.834611
0.137500	0.843050
0.137600	0.848892
0.137700	0.840453
0.137800	0.751193
0.137900	0.671995
0.138000	0.675566
0.138100	0.732043
0.138200	0.809618
0.138300	0.786897
0.138400	0.695365
0.138500	0.584358
0.138600	0.589876
0.138700	0.671671
0.138800	0.754764
0.138900	0.760282
0.139000	0.702831
0.139100	0.659661
0.139200	0.664855
0.139300	0.676215
0.139400	0.687575
0.139500	0.667127
0.139600	0.629151
0.139700	0.622984
0.139800	0.597017
0.139900	0.603833
0.140000	0.595394
0.140100	0.566182
0.140200	0.539891
0.140300	0.540215
0.140400	0.538592
0.140500	0.533075
0.140600	0.470106
0.140700	0.447060
0.140800	0.429858
0.140900	0.460368
0.141000	0.473352
0.141100	0.452903
0.141200	0.442841
0.141300	0.447385
0.141400	0.436349
0.141500	0.449982
0.141600	0.430831
0.141700	0.424340
0.141800	0.420120
0.141900	0.419796
0.142000	0.422717
0.142100	0.422068
0.142200	0.436349
0.142300	0.424340
0.142400	0.411032
0.142500	0.388636
0.142600	0.405189
0.142700	0.391882
0.142800	0.362020
0.142900	0.310087
0.143000	0.186097
0.143100	0.090021
0.143200	0.111768
0.143300	0.177009
0.143400	0.220502
0.143500	0.159481
0.143600	0.026078
0.143700	-0.114466
0.143800	-0.160556
0.143900	-0.143678
0.144000	-0.111220
0.144100	-0.142380
0.144200	-0.234236
0.144300	-0.328690
0.144400	-0.377377
0.144500	-0.392957
0.144600	-0.412107
0.144700	-0.417625
0.144800	-0.442293
0.144900	-0.499744
0.145000	-0.517921
0.145100	-0.519868
0.145200	-0.530580
0.145300	-0.552976
0.145400	-0.588680
0.145500	-0.607830
0.145600	-0.620813
0.145700	-0.599716
0.145800	-0.595821
0.145900	-0.620164
0.146000	-0.622436
0.146100	-0.553300
0.146200	-0.478646
0.146300	-0.511105
0.146400	-0.589329
0.146500	-0.663009
0.146600	-0.677940
0.146700	-0.589653
0.146800	-0.491630
0.146900	-0.499744
0.147000	-0.572451
0.147100	-0.687677
0.147200	-0.736040
0.147300	-0.704880
0.147400	-0.669501
0.147500	-0.661711
0.147600	-0.690923
0.147700	-0.737663
0.147800	-0.739610
0.147900	-0.732145
0.148000	-0.720135
0.148100	-0.726627
0.148200	-0.712670
0.148300	-0.690923
0.148400	-0.655544
0.148500	-0.622761
0.148600	-0.618217
0.148700	-0.604909
0.148800	-0.617568
0.148900	-0.581539
0.149000	-0.526035
0.149100	-0.466312
0.149200	-0.411458
0.149300	-0.395229
0.149400	-0.373482
0.149500	-0.318952
0.149600	-0.278380
0.149700	-0.224174
0.149800	-0.170943
0.149900	-0.144976
0.150000	-0.131669
0.150100	-0.130370
0.150200	-0.113167
0.150300	-0.102456
0.150400	-0.075516
0.150500	-0.039812
0.150600	-0.034294
0.150700	-0.002810
0.150800	-0.005731
0.150900	-0.015793
0.151000	-0.028776
0.151100	-0.002810
0.151200	0.025429
0.151300	0.141629
0.151400	0.243223
0.151500	0.261724
0.151600	0.159157
0.151700	0.096188
0.151800	0.110469
0.151900	0.189343
0.152000	0.309762
0.152100	0.347414
0.152200	0.326316
0.152300	0.294182
0.152400	0.293209
0.152500	0.353581
0.152600	0.420769
0.152700	0.498020
0.152800	0.490230
0.152900	0.520740
0.153000	0.519767
0.153100	0.529504
0.153200	0.561638
0.153300	0.597017
0.153400	0.612597
0.153500	0.619089
0.153600	0.610650
0.153700	0.599614
0.153800	0.597017
0.153900	0.574621
0.154000	0.539891
0.154100	0.545409
0.154200	0.540215
0.154300	0.589876
0.154400	0.528206
0.154500	0.449008
0.154600	0.387013
0.154700	0.424015
0.154800	0.511977
0.154900	0.551900
0.155000	0.510354
0.155100	0.394803
0.155200	0.333781
0.155300	0.338650
0.155400	0.406163
0.155500	0.455500
0.155600	0.422068
0.155700	0.352283
0.155800	0.326965
0.155900	0.332808
0.156000	0.350335
0.156100	0.372407
0.156200	0.368512
0.156300	0.369161
0.156400	0.379872
0.156500	0.395777
0.156600	0.392206
0.156700	0.370459
0.156800	0.373705
0.156900	0.379547
0.157000	0.413629
0.157100	0.414278
0.157200	0.398049
0.157300	0.349361
0.157400	0.335729
0.157500	0.330211
0.157600	0.332808
0.157700	0.353906
0.157800	0.335080
0.157900	0.355204
0.158000	0.367538
0.158100	0.360073
0.158200	0.370135
0.158300	0.379872
0.158400	0.383767
0.158500	0.399347
0.158600	0.403242
0.158700	0.387662
0.158800	0.393504
0.158900	0.363968
0.159000	0.389285
0.159100	0.375328
0.159200	0.361371
0.159300	0.362020
0.159400	0.373056
0.159500	0.352932
0.159600	0.292560
0.159700	0.165973
0.159800	0.142278
0.159900	0.161753
0.160000	0.245495
0.160100	0.247767
0.160200	0.166297
0.160300	0.043930
0.160400	-0.017416
0.160500	-0.022285
0.160600	0.006928
0.160700	0.018288
0.160800	-0.013521
0.160900	-0.106351
0.161000	-0.163478
0.161100	-0.227096
0.161200	-0.240079
0.161300	-0.245921
0.161400	-0.273186
0.161500	-0.289091
0.161600	-0.335181
0.161700	-0.347840
0.161800	-0.367640
0.161900	-0.371859
0.162000	-0.382570
0.162100	-0.411458
0.162200	-0.437749
0.162300	-0.427687
0.162400	-0.460145
0.162500	-0.470207
0.162600	-0.513701
0.162700	-0.506885
0.162800	-0.469558
0.162900	-0.452680
0.163000	-0.527334
0.163100	-0.631849
0.163200	-0.715267
0.163300	-0.692546
0.163400	-0.631525
0.163500	-0.591926
0.163600	-0.631525
0.163700	-0.721758
0.163800	-0.817510
0.163900	-0.835362
0.164000	-0.785701
0.164100	-0.745777
0.164200	-0.737663
0.164300	-0.751620
0.164400	-0.758761
0.164500	-0.759734
0.164600	-0.752594
0.164700	-0.718512
0.164800	-0.709749
0.164900	-0.696441
0.165000	-0.667878
0.165100	-0.632174
0.165200	-0.625357
0.165300	-0.619515
0.165400	-0.618866
0.165500	-0.623085
0.165600	-0.570179
0.165700	-0.533501
0.165800	-0.458522
0.165900	-0.470857
0.166000	-0.464365
0.166100	-0.443267
0.166200	-0.421196
0.166300	-0.394904
0.166400	-0.362771
0.166500	-0.338427
0.166600	-0.350112
0.166700	-0.346217
0.166800	-0.355630
0.166900	-0.356279
0.167000	-0.347191
0.167100	-0.337129
0.167200	-0.304346
0.167300	-0.315706
0.167400	-0.281950
0.167500	-0.292986
0.167600	-0.297530
0.167700	-0.293635
0.167800	-0.249492
0.167900	-0.190418
0.168000	-0.060585
0.168100	0.029324
0.168200	-0.022609
0.168300	-0.119010
0.168400	-0.152766
0.168500	-0.102132
0.168600	0.046851
0.168700	0.097811
0.168800	0.137410
0.168900	0.044904
0.169000	0.026078
0.169100	0.050746
0.169200	0.138383
0.169300	0.204598
0.169400	0.198106
0.169500	0.243223
0.169600	0.200378
0.169700	0.212388
0.169800	0.215958
0.169900	0.256206
0.170000	0.286393
0.170100	0.301323
0.170200	0.310736
0.170300	0.315605
0.170400	0.297753
0.170500	0.271462
0.170600	0.263672
0.170700	0.260751
0.170800	0.276331
0.170900	0.275681
0.171000	0.285743
0.171100	0.175061
0.171200	0.078336
0.171300	0.070870
0.171400	0.120207
0.171500	0.198756
0.171600	0.188693
0.171700	0.113066
0.171800	-0.000538
0.171900	-0.007354
0.172000	0.067625
0.172100	0.164999
0.172200	0.203624
0.172300	0.179930
0.172400	0.144550
0.172500	0.158832
0.172600	0.189667
0.172700	0.239653
0.172800	0.239653
0.172900	0.224397
0.173000	0.222775
0.173100	0.230240
0.173200	0.246794
0.173300	0.252636
0.173400	0.249390
0.173500	0.249715
0.173600	0.260751
0.173700	0.266268
0.173800	0.285094
0.173900	0.241276
0.174000	0.215958
0.174100	0.198431
0.174200	0.220502
0.174300	0.266593
0.174400	0.256856
0.174500	0.261075
0.174600	0.246144
0.174700	0.239653
0.174800	0.236407
0.174900	0.237705
0.175000	0.231863
0.175100	0.226670
0.175200	0.253610
0.175300	0.259452
0.175400	0.264970
0.175500	0.266918
0.175600	0.279576
0.175700	0.274058
0.175800	0.275681
0.175900	0.269514
0.176000	0.276331
0.176100	0.242574
0.176200	0.231214
0.176300	0.100083
0.176400	-0.008003
0.176500	-0.032347
0.176600	0.041333
0.176700	0.077037
0.176800	0.062431
0.176900	-0.056041
0.177000	-0.168022
0.177100	-0.217683
0.177200	-0.176136
0.177300	-0.100509
0.177400	-0.106676
0.177500	-0.139783
0.177600	-0.230341
0.177700	-0.268642
0.177800	-0.286170
0.177900	-0.258580
0.178000	-0.244623
0.178100	-0.241377
0.178200	-0.260852
0.178300	-0.277406
0.178400	-0.292661
0.178500	-0.325444
0.178600	-0.356604
0.178700	-0.387764
0.178800	-0.442293
0.178900	-0.488059
0.179000	-0.511754
0.179100	-0.537720
0.179200	-0.605233
0.179300	-0.646131
0.179400	-0.624384
0.179500	-0.590303
0.179600	-0.610102
0.179700	-0.706828
0.179800	-0.797710
0.179900	-0.859381
0.180000	-0.812966
0.180100	-0.733768
0.180200	-0.710723
0.180300	-0.777586
0.180400	-0.873987
0.180500	-0.947343
0.180600	-0.944746
0.180700	-0.910665
0.180800	-0.895085
0.180900	-0.890866
0.181000	-0.939228
0.181100	-0.972011
0.181200	-0.982722
0.181300	-0.981424
0.181400	-0.979801
0.181500	-0.974608
0.181600	-0.929815
0.181700	-0.880803
0.181800	-0.836985
0.181900	-0.829844
0.182000	-0.820431
0.182100	-0.811343
0.182200	-0.781806
0.182300	-0.702283
0.182400	-0.644508
0.182500	-0.562064
0.182600	-0.559467
0.182700	-0.530580
0.182800	-0.471830
0.182900	-0.412756
0.183000	-0.358876
0.183100	-0.296556
0.183200	-0.238781
0.183300	-0.204699
0.183400	-0.172890
0.183500	-0.168346
0.183600	-0.144652
0.183700	-0.125177
0.183800	-0.090447
0.183900	-0.049549
0.184000	-0.048576
0.184100	-0.015468
0.184200	-0.066752
0.184300	-0.021311
0.184400	-0.041759
0.184500	0.063730
0.184600	0.124751
0.184700	0.285743
0.184800	0.339948
0.184900	0.238679
0.185000	0.188693
0.185100	0.165324
0.185200	0.281524
0.185300	0.351633
0.185400	0.446736
0.185500	0.416550
0.185600	0.363643
0.185700	0.360073
0.185800	0.394478
0.185900	0.505485
0.186000	0.543786
0.186100	0.551576
0.186200	0.551900
0.186300	0.542812
0.186400	0.537294
0.186500	0.557094
0.186600	0.597991
0.186700	0.608377
0.186800	0.627852
0.186900	0.641485
0.187000	0.647003
0.187100	0.611948
0.187200	0.603184
0.187300	0.570726
0.187400	0.557418
0.187500	0.554172
0.187600	0.586955
0.187700	0.546707
0.187800	0.445438
0.187900	0.360073
0.188000	0.357151
0.188100	0.397724
0.188200	0.452903
0.188300	0.405514
0.188400	0.297753
0.188500	0.221152
0.188600	0.227319
0.188700	0.321772
0.188800	0.382144
0.188900	0.399347
0.189000	0.327939
0.189100	0.314956
0.189200	0.322746
0.189300	0.338650
0.189400	0.356502
0.189500	0.336378
0.189600	0.315929
0.189700	0.308464
0.189800	0.329886
0.189900	0.338001
0.190000	0.338326
0.190100	0.310087
0.190200	0.322421
0.190300	0.331834
0.190400	0.342870
0.190500	0.343194
0.190600	0.295156
0.190700	0.258803
0.190800	0.241925
0.190900	0.248416
0.191000	0.276655
0.191100	0.265619
0.191200	0.261400
0.191300	0.251987
0.191400	0.253285
0.191500	0.240627
0.191600	0.249066
0.191700	0.238354
0.191800	0.226020
0.191900	0.227968
0.192000	0.223424
0.192100	0.212063
0.192200	0.199729
0.192300	0.191615
0.192400	0.201677
0.192500	0.179281
0.192600	0.171815
0.192700	0.173114
0.192800	0.138059
0.192900	0.070546
0.193000	-0.068700
0.193100	-0.140757
0.193200	-0.130046
0.193300	-0.071296
0.193400	-0.027802
0.193500	-0.104728
0.193600	-0.254036
0.193700	-0.354007
0.193800	-0.402694
0.193900	-0.370885
0.194000	-0.348489
0.194100	-0.383869
0.194200	-0.467935
0.194300	-0.525386
0.194400	-0.555897
0.194500	-0.554923
0.194600	-0.572126
0.194700	-0.574074
0.194800	-0.588355
0.194900	-0.613023
0.195000	-0.637042
0.195100	-0.660088
0.195200	-0.686703
0.195300	-0.697090
0.195400	-0.739610
0.195500	-0.765252
0.195600	-0.799009
0.195700	-0.825949
0.195800	-0.872689
0.195900	-0.931438
0.196000	-0.933386
0.196100	-0.886971
0.196200	-0.837959
0.196300	-0.878207
0.196400	-0.977204
0.196500	-1.065815
0.196600	-1.107037
0.196700	-1.037577
0.196800	-0.978827
0.196900	-0.984670
0.197000	-1.085939
0.197100	-1.165787
0.197200	-1.186235
0.197300	-1.153452
0.197400	-1.092431
0.197500	-1.094379
0.197600	-1.142092
0.197700	-1.178121
0.197800	-1.199543
0.197900	-1.202464
0.198000	-1.211877
0.198100	-1.235572
0.198200	-1.232651
0.198300	-1.223562
0.198400	-1.159295
0.198500	-1.130407
0.198600	-1.108660
0.198700	-1.092106
0.198800	-1.063868
0.198900	-0.998627
0.199000	-0.930140
0.199100	-0.841854
0.199200	-0.814589
0.199300	-0.796412
0.199400	-0.758761
0.199500	-0.710398
0.199600	-0.656842
0.199700	-0.598417
0.199800	-0.572775
0.199900	-0.559792
0.200000	-0.526360
0.200100	-0.512403
0.200200	-0.501367
0.200300	-0.498446
0.200400	-0.460470
0.200500	-0.460470
0.200600	-0.441969
0.200700	-0.435153
0.200800	-0.418274
0.200900	-0.419248
0.201000	-0.399449
0.201100	-0.382246
0.201200	-0.310838
0.201300	-0.227420
0.201400	-0.097912
0.201500	-0.105702
0.201600	-0.174838
0.201700	-0.245272
0.201800	-0.217358
0.201900	-0.102456
0.202000	-0.019363
0.202100	0.022832
0.202200	-0.054743
0.202300	-0.089473
0.202400	-0.103755
0.202500	-0.048576
0.202600	-0.004108
0.202700	0.036789
0.202800	0.006603
0.202900	-0.010924
0.203000	-0.028452
0.203100	-0.041759
0.203200	-0.001836
0.203300	0.010823
0.203400	0.016990
0.203500	0.070221
0.203600	0.084827
0.203700	0.062431
0.203800	0.047500
0.203900	0.050097
0.204000	0.041658
0.204100	0.052694
0.204200	0.078011
0.204300	0.095214
0.204400	0.036789
0.204500	-0.066428
0.204600	-0.107974
0.204700	-0.073568
0.204800	0.029324
0.204900	0.067949
0.205000	0.008551
0.205100	-0.079411
0.205200	-0.102781
0.205300	-0.066428
0.205400	0.032570
0.205500	0.074116
0.205600	0.050746
0.205700	0.007577
0.205800	0.006928
0.205900	0.026727
0.206000	0.068274
0.206100	0.059510
0.206200	0.052369
0.206300	0.046851
0.206400	0.061133
0.206500	0.127023
0.206600	0.149419
0.206700	0.143577
0.206800	0.140655
0.206900	0.143901
0.207000	0.147472
0.207100	0.150393
0.207200	0.125725
0.207300	0.085152
0.207400	0.059510
0.207500	0.064703
0.207600	0.076713
0.207700	0.119558
0.207800	0.109171
0.207900	0.133515
0.208000	0.120207
0.208100	0.126698
0.208200	0.123777
0.208300	0.116961
0.208400	0.110794
0.208500	0.141305
0.208600	0.136111
0.208700	0.137734
0.208800	0.126698
0.208900	0.113066
0.209000	0.101056
0.209100	0.089047
0.209200	0.069247
0.209300	0.059510
0.209400	0.039386
0.209500	0.015042
0.209600	-0.090122
0.209700	-0.207621
0.209800	-0.260852
0.209900	-0.207296
0.210000	-0.153740
0.210100	-0.156012
0.210200	-0.259878
0.210300	-0.395554
0.210400	-0.508183
0.210500	-0.510456
0.210600	-0.480594
0.210700	-0.479945
0.210800	-0.538694
0.210900	-0.642885
0.211000	-0.714942
0.211100	-0.751944
0.211200	-0.750971
0.211300	-0.793816
0.211400	-0.814589
0.211500	-0.863925
0.211600	-0.916508
0.211700	-0.965195
0.211800	-0.996679
0.211900	-1.034980
0.212000	-1.029462
0.212100	-1.059973
0.212200	-1.085939
0.212300	-1.086589
0.212400	-1.085615
0.212500	-1.113204
0.212600	-1.118722
0.212700	-1.046665
0.212800	-0.987591
0.212900	-0.945071
0.213000	-0.986617
0.213100	-1.079772
0.213200	-1.136574
0.213300	-1.097624
0.213400	-1.021672
0.213500	-0.974608
0.213600	-1.033357
0.213700	-1.133328
0.213800	-1.210579
0.213900	-1.233949
0.214000	-1.213176
0.214100	-1.200841
0.214200	-1.198245
0.214300	-1.216421
0.214400	-1.234923
0.214500	-1.232326
0.214600	-1.235572
0.214700	-1.214474
0.214800	-1.195973
0.214900	-1.170655
0.215000	-1.131381
0.215100	-1.087238
0.215200	-1.034655
0.215300	-1.019400
0.215400	-1.002522
0.215500	-0.972336
0.215600	-0.894436
0.215700	-0.846073
0.215800	-0.766875
0.215900	-0.737987
0.216000	-0.722732
0.216100	-0.663334
0.216200	-0.617243
0.216300	-0.578942
0.216400	-0.518895
0.216500	-0.470857
0.216600	-0.456575
0.216700	-0.433530
0.216800	-0.390685
0.216900	-0.353358
0.217000	-0.317979
0.217100	-0.291038
0.217200	-0.256308
0.217300	-0.233587
0.217400	-0.196260
0.217500	-0.205998
0.217600	-0.190742
0.217700	-0.173864
0.217800	-0.120308
0.217900	-0.046953
0.218000	0.092293
0.218100	0.169543
0.218200	0.107548
0.218300	0.080283
0.218400	0.017639
0.218500	0.111768
0.218600	0.168245
0.218700	0.275032
0.218800	0.249066
0.218900	0.233486
0.219000	0.158832
0.219100	0.190966
0.219200	0.285419
0.219300	0.313333
0.219400	0.345791
0.219500	0.338650
0.219600	0.331509
0.219700	0.296455
0.219800	0.308140
0.219900	0.290612
0.220000	0.301323
0.220100	0.298077
0.220200	0.315605
0.220300	0.295481
0.220400	0.286717
0.220500	0.270488
0.220600	0.258803
0.220700	0.241925
0.220800	0.246469
0.220900	0.262373
0.221000	0.268865
0.221100	0.183500
0.221200	0.108846
0.221300	0.086450
0.221400	0.144226
0.221500	0.218230
0.221600	0.210116
0.221700	0.122479
0.221800	0.051071
0.221900	0.031596
0.222000	0.077362
0.222100	0.128321
0.222200	0.129295
0.222300	0.065677
0.222400	0.011472
0.222500	0.010174
0.222600	-0.007678
0.222700	-0.000213
0.222800	-0.020337
0.222900	-0.052146
0.223000	-0.066428
0.223100	-0.075841
0.223200	-0.045654
0.223300	-0.034943
0.223400	-0.041110
0.223500	-0.030724
0.223600	-0.017740
0.223700	0.006279
0.223800	0.015367
0.223900	-0.038189
0.224000	-0.082008
0.224100	-0.106351
0.224200	-0.084929
0.224300	-0.074867
0.224400	-0.106676
0.224500	-0.128423
0.224600	-0.154714
0.224700	-0.179382
0.224800	-0.197559
0.224900	-0.215411
0.225000	-0.255334
0.225100	-0.272537
0.225200	-0.300451
0.225300	-0.317654
0.225400	-0.345893
0.225500	-0.340699
0.225600	-0.381597
0.225700	-0.399124
0.225800	-0.427038
0.225900	-0.465988
0.226000	-0.501367
0.226100	-0.531553
0.226200	-0.554274
0.226300	-0.684756
0.226400	-0.774016
0.226500	-0.799658
0.226600	-0.713319
0.226700	-0.682159
0.226800	-0.724680
0.226900	-0.841529
0.227000	-0.958703
0.227100	-1.027190
0.227200	-0.994732
0.227300	-0.966169
0.227400	-0.976231
0.227500	-1.039200
0.227600	-1.115801
0.227700	-1.145338
0.227800	-1.153777
0.227900	-1.150207
0.228000	-1.129758
0.228100	-1.126512
0.228200	-1.121968
0.228300	-1.125214
0.228400	-1.134951
0.228500	-1.155400
0.228600	-1.154102
0.228700	-1.163515
0.228800	-1.195324
0.228900	-1.209930
0.229000	-1.231352
0.229100	-1.280689
0.229200	-1.319963
0.229300	-1.332297
0.229400	-1.289777
0.229500	-1.232975
0.229600	-1.241739
0.229700	-1.330999
0.229800	-1.411820
0.229900	-1.453367
0.230000	-1.393968
0.230100	-1.304383
0.230200	-1.281662
0.230300	-1.355343
0.230400	-1.449147
0.230500	-1.467973
0.230600	-1.439085
0.230700	-1.379686
0.230800	-1.354044
0.230900	-1.384230
0.231000	-1.402407
0.231100	-1.399810
0.231200	-1.389748
0.231300	-1.380011
0.231400	-1.388450
0.231500	-1.385529
0.231600	-1.345605
0.231700	-1.302111
0.231800	-1.257968
0.231900	-1.221939
0.232000	-1.207009
0.232100	-1.186235
0.232200	-1.132030
0.232300	-1.040822
0.232400	-0.981749
0.232500	-0.888918
0.232600	-0.851916
0.232700	-0.797061
0.232800	-0.730197
0.232900	-0.674369
0.233000	-0.594198
0.233100	-0.552327
0.233200	-0.519868
0.233300	-0.512403
0.233400	-0.498446
0.233500	-0.465663
0.233600	-0.457549
0.233700	-0.441320
0.233800	-0.429959
0.233900	-0.420871
0.234000	-0.421520
0.234100	-0.433530
0.234200	-0.447811
0.234300	-0.487086
0.234400	-0.473453
0.234500	-0.447811
0.234600	-0.354981
0.234700	-0.241053
0.234800	-0.199831
0.234900	-0.279678
0.235000	-0.345893
0.235100	-0.318628
0.235200	-0.255659
0.235300	-0.104079
0.235400	-0.088499
0.235500	-0.107974
0.235600	-0.169645
0.235700	-0.164451
0.235800	-0.118685
0.235900	-0.030075
0.236000	0.041983
0.236100	0.024455
0.236200	0.008551
0.236300	-0.000862
0.236400	0.009849
0.236500	0.010498
0.236600	0.055940
0.236700	0.062431
0.236800	0.066002
0.236900	0.071195
0.237000	0.059510
0.237100	0.062107
0.237200	0.039386
0.237300	0.023806
0.237400	0.010823
0.237500	0.037438
0.237600	0.031596
0.237700	0.035491
0.237800	-0.108299
0.237900	-0.158933
0.238000	-0.144003
0.238100	-0.057339
0.238200	0.006603
0.238300	-0.049874
0.238400	-0.167697
0.238500	-0.246571
0.238600	-0.249492
0.238700	-0.175812
0.238800	-0.119984
0.238900	-0.174189
0.239000	-0.252088
0.239100	-0.308566
0.239200	-0.338103
0.239300	-0.346542
0.239400	-0.339725
0.239500	-0.365692
0.239600	-0.408861
0.239700	-0.419897
0.239800	-0.414055
0.239900	-0.386465
0.240000	-0.384842
0.240100	-0.400098
0.240200	-0.383544
0.240300	-0.379000
0.240400	-0.359200
0.240500	-0.361797
0.240600	-0.407238
0.240700	-0.445215
0.240800	-0.459172
0.240900	-0.420871
0.241000	-0.412107
0.241100	-0.420871
0.241200	-0.419897
0.241300	-0.411783
0.241400	-0.396203
0.241500	-0.373157
0.241600	-0.356279
0.241700	-0.348814
0.241800	-0.343620
0.241900	-0.323496
0.242000	-0.294933
0.242100	-0.301749
0.242200	-0.319601
0.242300	-0.336804
0.242400	-0.356928
0.242500	-0.370885
0.242600	-0.397501
0.242700	-0.410160
0.242800	-0.404317
0.242900	-0.466312
0.243000	-0.580890
0.243100	-0.628279
0.243200	-0.569854
0.243300	-0.473453
0.243400	-0.419248
0.243500	-0.452680
0.243600	-0.591926
0.243700	-0.647754
0.243800	-0.645482
0.243900	-0.570179
0.244000	-0.519868
0.244100	-0.540642
0.244200	-0.615295
0.244300	-0.677291
0.244400	-0.682159
0.244500	-0.675019
0.244600	-0.653921
0.244700	-0.642236
0.244800	-0.663009
0.244900	-0.661711
0.245000	-0.675343
0.245100	-0.675992
0.245200	-0.704231
0.245300	-0.725978
0.245400	-0.741558
0.245500	-0.779209
0.245600	-0.781481
0.245700	-0.814913
0.245800	-0.869119
0.245900	-0.898655
0.246000	-0.898655
0.246100	-0.861329
0.246200	-0.873014
0.246300	-0.919429
0.246400	-1.034980
0.246500	-1.122617
0.246600	-1.130407
0.246700	-1.065815
0.246800	-1.019725
0.246900	-1.067763
0.247000	-1.160269
0.247100	-1.284259
0.247200	-1.341386
0.247300	-1.336841
0.247400	-1.304383
0.247500	-1.325806
0.247600	-1.350149
0.247700	-1.395591
0.247800	-1.417013
0.247900	-1.425452
0.248000	-1.407600
0.248100	-1.384230
0.248200	-1.348851
0.248300	-1.304059
0.248400	-1.247581
0.248500	-1.190130
0.248600	-1.164488
0.248700	-1.164813
0.248800	-1.145338
0.248900	-1.068087
0.249000	-1.006092
0.249100	-0.957080
0.249200	-0.895734
0.249300	-0.859056
0.249400	-0.816861
0.249500	-0.765901
0.249600	-0.729224
0.249700	-0.658465
0.249800	-0.618866
0.249900	-0.582188
0.250000	-0.594847
0.250100	-0.583486
0.250200	-0.577969
0.250300	-0.593548
0.250400	-0.587381
0.250500	-0.559467
0.250600	-0.552651
0.250700	-0.551677
0.250800	-0.577969
0.250900	-0.576670
0.251000	-0.601663
0.251100	-0.582513
0.251200	-0.576670
0.251300	-0.481243
0.251400	-0.377377
0.251500	-0.446513
0.251600	-0.549405
0.251700	-0.612050
0.251800	-0.548432
0.251900	-0.454627
0.252000	-0.387439
0.252100	-0.350437
0.252200	-0.446513
0.252300	-0.483515
0.252400	-0.492279
0.252500	-0.443592
0.252600	-0.374780
0.252700	-0.338103
0.252800	-0.344594
0.252900	-0.382246
0.253000	-0.411133
0.253100	-0.404642
0.253200	-0.398475
0.253300	-0.396203
0.253400	-0.402694
0.253500	-0.391659
0.253600	-0.377377
0.253700	-0.381272
0.253800	-0.416327
0.253900	-0.397176
0.254000	-0.412432
0.254100	-0.400098
0.254200	-0.368938
0.254300	-0.357253
0.254400	-0.412432
0.254500	-0.493902
0.254600	-0.531229
0.254700	-0.492604
0.254800	-0.418599
0.254900	-0.403668
0.255000	-0.465663
0.255100	-0.590952
0.255200	-0.640288
0.255300	-0.637042
0.255400	-0.576670
0.255500	-0.564012
0.255600	-0.600689
0.255700	-0.676317
0.255800	-0.708450
0.255900	-0.727276
0.256000	-0.734092
0.256100	-0.752594
0.256200	-0.765252
0.256300	-0.793491
0.256400	-0.792193
0.256500	-0.781481
0.256600	-0.792517
0.256700	-0.816212
0.256800	-0.828870
0.256900	-0.828221
0.257000	-0.809720
0.257100	-0.787973
0.257200	-0.814589
0.257300	-0.842503
0.257400	-0.833415
0.257500	-0.829195
0.257600	-0.755839
0.257700	-0.741233
0.257800	-0.728899
0.257900	-0.719162
0.258000	-0.697090
0.258100	-0.674369
0.258200	-0.655544
0.258300	-0.661711
0.258400	-0.646131
0.258500	-0.625682
0.258600	-0.613348
0.258700	-0.617892
0.258800	-0.607181
0.258900	-0.608479
0.259000	-0.616918
0.259100	-0.608155
0.259200	-0.622761
0.259300	-0.625682
0.259400	-0.660088
0.259500	-0.706503
0.259600	-0.814264
0.259700	-0.949615
0.259800	-1.004145
0.259900	-0.968116
0.260000	-0.906770
0.260100	-0.917481
0.260200	-1.042121
0.260300	-1.176498
0.260400	-1.257968
0.260500	-1.226808
0.260600	-1.178445
0.260700	-1.150207
0.260800	-1.192727
0.260900	-1.263486
0.261000	-1.269653
0.261100	-1.231352
0.261200	-1.177147
0.261300	-1.128135
0.261400	-1.085290
0.261500	-1.053806
0.261600	-1.014531
0.261700	-0.994732
0.261800	-0.966493
0.261900	-0.959352
0.262000	-0.940851
0.262100	-0.945071
0.262200	-0.905147
0.262300	-0.914235
0.262400	-0.912613
0.262500	-0.923648
0.262600	-0.939553
0.262700	-0.889243
0.262800	-0.830169
0.262900	-0.811018
0.263000	-0.876909
0.263100	-0.966818
0.263200	-1.035629
0.263300	-0.986293
0.263400	-0.909042
0.263500	-0.879505
0.263600	-0.914885
0.263700	-1.000899
0.263800	-1.087887
0.263900	-1.097300
0.264000	-1.056402
0.264100	-1.013558
0.264200	-0.989538
0.264300	-1.012908
0.264400	-1.023295
0.264500	-1.007066
0.264600	-1.014531
0.264700	-0.994732
0.264800	-0.992784
0.264900	-0.949290
0.265000	-0.903524
0.265100	-0.842178
0.265200	-0.800307
0.265300	-0.787324
0.265400	-0.782780
0.265500	-0.750322
0.265600	-0.686054
0.265700	-0.630875
0.265800	-0.539668
0.265900	-0.532852
0.266000	-0.494876
0.266100	-0.469883
0.266200	-0.438074
0.266300	-0.394904
0.266400	-0.338752
0.266500	-0.301425
0.266600	-0.291687
0.266700	-0.290064
0.266800	-0.276757
0.266900	-0.294284
0.267000	-0.262800
0.267100	-0.241377
0.267200	-0.196910
0.267300	-0.162179
0.267400	-0.096614
0.267500	-0.090771
0.267600	-0.041435
0.267700	-0.041110
0.267800	0.009524
0.267900	0.090670
0.268000	0.227319
0.268100	0.308140
0.268200	0.226345
0.268300	0.098135
0.268400	0.052369
0.268500	0.099758
0.268600	0.216932
0.268700	0.288665
0.268800	0.267242
0.268900	0.198756
0.269000	0.195510
0.269100	0.189018
0.269200	0.286393
0.269300	0.295481
0.269400	0.338975
0.269500	0.304245
0.269600	0.289638
0.269700	0.290937
0.269800	0.277304
0.269900	0.289638
0.270000	0.265944
0.270100	0.254908
0.270200	0.234784
0.270300	0.240627
0.270400	0.219853
0.270500	0.180579
0.270600	0.152989
0.270700	0.161753
0.270800	0.176035
0.270900	0.214660
0.271000	0.231214
0.271100	0.144226
0.271200	0.090670
0.271300	0.082555
0.271400	0.116636
0.271500	0.206870
0.271600	0.186097
0.271700	0.092942
0.271800	-0.000862
0.271900	-0.051172
0.272000	-0.027153
0.272100	0.016990
0.272200	0.022508
0.272300	-0.049549
0.272400	-0.127124
0.272500	-0.151144
0.272600	-0.176785
0.272700	-0.155363
0.272800	-0.186198
0.272900	-0.213463
0.273000	-0.250141
0.273100	-0.268318
0.273200	-0.273511
0.273300	-0.313434
0.273400	-0.321873
0.273500	-0.317654
0.273600	-0.303697
0.273700	-0.287792
0.273800	-0.295582
0.273900	-0.344270
0.274000	-0.374780
0.274100	-0.353033
0.274200	-0.317979
0.274300	-0.287468
0.274400	-0.285520
0.274500	-0.255334
0.274600	-0.225473
0.274700	-0.191067
0.274800	-0.167373
0.274900	-0.146599
0.275000	-0.147898
0.275100	-0.128747
0.275200	-0.096289
0.275300	-0.078437
0.275400	-0.072919
0.275500	-0.071296
0.275600	-0.057015
0.275700	-0.066103
0.275800	-0.074867
0.275900	-0.090447
0.276000	-0.116738
0.276100	-0.139783
0.276200	-0.182628
0.276300	-0.308566
0.276400	-0.382895
0.276500	-0.370236
0.276600	-0.271563
0.276700	-0.207621
0.276800	-0.231964
0.276900	-0.351735
0.277000	-0.464365
0.277100	-0.480594
0.277200	-0.425090
0.277300	-0.366990
0.277400	-0.368613
0.277500	-0.459821
0.277600	-0.542589
0.277700	-0.560441
0.277800	-0.588031
0.277900	-0.590952
0.278000	-0.573424
0.278100	-0.572451
0.278200	-0.593873
0.278300	-0.602312
0.278400	-0.599391
0.278500	-0.583486
0.278600	-0.585434
0.278700	-0.599391
0.278800	-0.594522
0.278900	-0.575372
0.279000	-0.568556
0.279100	-0.569854
0.279200	-0.562064
0.279300	-0.525062
0.279400	-0.448460
0.279500	-0.363420
0.279600	-0.356928
0.279700	-0.410484
0.279800	-0.474752
0.279900	-0.473778
0.280000	-0.410809
0.280100	-0.324146
0.280200	-0.303048
0.280300	-0.346866
0.280400	-0.418923
0.280500	-0.461768
0.280600	-0.444241
0.280700	-0.412107
0.280800	-0.408212
0.280900	-0.416002
0.281000	-0.433854
0.281100	-0.450408
0.281200	-0.434179
0.281300	-0.455926
0.281400	-0.456575
0.281500	-0.469234
0.281600	-0.444241
0.281700	-0.385492
0.281800	-0.337453
0.281900	-0.316680
0.282000	-0.339401
0.282100	-0.320575
0.282200	-0.268967
0.282300	-0.222227
0.282400	-0.140432
0.282500	-0.111869
0.282600	-0.095640
0.282700	-0.087201
0.282800	-0.059936
0.282900	-0.013845
0.283000	0.019911
0.283100	0.081906
0.283200	0.131243
0.283300	0.128646
0.283400	0.157209
0.283500	0.187071
0.283600	0.200378
0.283700	0.235433
0.283800	0.269190
0.283900	0.301323
0.284000	0.317228
0.284100	0.327939
0.284200	0.342545
0.284300	0.335080
0.284400	0.381170
0.284500	0.378898
0.284600	0.521390
0.284700	0.587604
0.284800	0.600912
0.284900	0.466860
0.285000	0.406812
0.285100	0.389934
0.285200	0.466535
0.285300	0.542812
0.285400	0.573972
0.285500	0.518468
0.285600	0.433753
0.285700	0.404216
0.285800	0.463939
0.285900	0.506459
0.286000	0.569103
0.286100	0.566831
0.286200	0.590525
0.286300	0.559366
0.286400	0.578841
0.286500	0.584358
0.286600	0.597666
0.286700	0.609027
0.286800	0.588903
0.286900	0.617466
0.287000	0.589876
0.287100	0.567156
0.287200	0.545084
0.287300	0.525285
0.287400	0.511003
0.287500	0.527557
0.287600	0.518468
0.287700	0.510354
0.287800	0.377275
0.287900	0.358774
0.288000	0.383442
0.288100	0.505485
0.288200	0.560664
0.288300	0.546707
0.288400	0.489905
0.288500	0.456473
0.288600	0.524960
0.288700	0.612597
0.288800	0.655766
0.288900	0.669723
0.289000	0.634993
0.289100	0.630124
0.289200	0.648950
0.289300	0.696664
0.289400	0.752492
0.289500	0.759957
0.289600	0.780406
0.289700	0.833637
0.289800	0.904396
0.289900	0.956653
0.290000	0.979374
0.290100	1.004367
0.290200	1.078047
0.290300	1.132577
0.290400	1.198791
0.290500	1.228004
0.290600	1.237741
0.290700	1.261111
0.290800	1.289025
0.290900	1.364328
0.291000	1.429894
0.291100	1.483125
0.291200	1.531488
0.291300	1.648012
0.291400	1.941110
0.291500	2.228040
0.291600	2.486083
0.291700	2.820078
0.291800	3.101816
0.291900	3.487096
0.292000	3.671784
0.292100	3.915871
0.292200	4.179108
0.292300	4.350164
0.292400	4.548485
0.292500	4.594901
0.292600	4.757518
0.292700	4.742912
0.292800	4.684811
0.292900	4.069074
0.293000	3.141740
0.293100	2.737634
0.293200	2.849615
0.293300	3.332595
0.293400	3.287802
0.293500	2.499391
0.293600	1.693778
0.293700	1.569464
0.293800	1.546743
0.293900	1.580824
0.294000	1.553235
0.294100	1.480204
0.294200	1.366925
0.294300	1.244557
0.294400	1.187756
0.294500	1.139718
0.294600	1.075126
0.294700	0.974505
0.294800	0.871938
0.294900	0.750220
0.295000	0.642783
0.295100	0.535022
0.295200	0.408111
0.295300	0.291261
0.295400	0.176684
0.295500	0.102030
0.295600	0.016016
0.295700	-0.060261
0.295800	-0.145626
0.295900	-0.215411
0.296000	-0.253387
0.296100	-0.212165
0.296200	-0.250790
0.296300	-0.316680
0.296400	-0.422169
0.296500	-0.519544
0.296600	-0.530904
0.296700	-0.476374
0.296800	-0.464040
0.296900	-0.521167
0.297000	-0.636393
0.297100	-0.753892
0.297200	-0.795438
0.297300	-0.798360
0.297400	-0.762980
0.297500	-0.770446
0.297600	-0.803553
0.297700	-0.820107
0.297800	-0.809720
0.297900	-0.788298
0.298000	-0.769472
0.298100	-0.735715
0.298200	-0.710398
0.298300	-0.665606
0.298400	-0.604260
0.298500	-0.547458
0.298600	-0.525711
0.298700	-0.502341
0.298800	-0.504938
0.298900	-0.408212
0.299000	-0.345893
0.299100	-0.246895
0.299200	-0.218981
0.299300	-0.202427
0.299400	-0.163478
0.299500	-0.125826
0.299600	-0.062857
0.299700	0.014069
0.299800	0.031921
0.299900	0.041333
0.300000	0.042307
0.300100	0.017964
0.300200	0.007252
0.300300	-0.030724
0.300400	-0.063831
0.300500	-0.092394
0.300600	-0.156012
0.300700	-0.203401
0.300800	-0.286170
0.300900	-0.341998
0.301000	-0.440995
0.301100	-0.480594
0.301200	-0.529606
0.301300	-0.465339
0.301400	-0.443592
0.301500	-0.549730
0.301600	-0.701310
0.301700	-0.796737
0.301800	-0.780508
0.301900	-0.693844
0.302000	-0.643209
0.302100	-0.669501
0.302200	-0.761033
0.302300	-0.836011
0.302400	-0.861653
0.302500	-0.807123
0.302600	-0.730847
0.302700	-0.699687
0.302800	-0.687028
0.302900	-0.723706
0.303000	-0.682484
0.303100	-0.642885
0.303200	-0.574398
0.303300	-0.527658
0.303400	-0.508833
0.303500	-0.458198
0.303600	-0.422494
0.303700	-0.401396
0.303800	-0.396852
0.303900	-0.373157
0.304000	-0.363420
0.304100	-0.346542
0.304200	-0.355305
0.304300	-0.317654
0.304400	-0.427363
0.304500	-0.509806
0.304600	-0.546484
0.304700	-0.514026
0.304800	-0.393281
0.304900	-0.396203
0.305000	-0.440346
0.305100	-0.495849
0.305200	-0.494226
0.305300	-0.412756
0.305400	-0.284547
0.305500	-0.228719
0.305600	-0.232938
0.305700	-0.275783
0.305800	-0.286170
0.305900	-0.261826
0.306000	-0.184900
0.306100	-0.150819
0.306200	-0.106351
0.306300	-0.058313
0.306400	0.000436
0.306500	0.061457
0.306600	0.126374
0.306700	0.174412
0.306800	0.225696
0.306900	0.300674
0.307000	0.356502
0.307100	0.423691
0.307200	0.442516
0.307300	0.430182
0.307400	0.457772
0.307500	0.460044
0.307600	0.525285
0.307700	0.522039
0.307800	0.549953
0.307900	0.574946
0.308000	0.600912
0.308100	0.619089
0.308200	0.648626
0.308300	0.670048
0.308400	0.684979
0.308500	0.702182
0.308600	0.715165
0.308700	0.734964
0.308800	0.763203
0.308900	0.784625
0.309000	0.805398
0.309100	0.804749
0.309200	0.812539
0.309300	0.806697
0.309400	0.772291
0.309500	0.726525
0.309600	0.613246
0.309700	0.500941
0.309800	0.483738
0.309900	0.516845
0.310000	0.591499
0.310100	0.595719
0.310200	0.513924
0.310300	0.405189
0.310400	0.389934
0.310500	0.440893
0.310600	0.527557
0.310700	0.552549
0.310800	0.510354
0.310900	0.437972
0.311000	0.384092
0.311100	0.384092
0.311200	0.375003
0.311300	0.359099
0.311400	0.347738
0.311500	0.312359
0.311600	0.264321
0.311700	0.239328
0.311800	0.205572
0.311900	0.175710
0.312000	0.124751
0.312100	0.062431
0.312200	0.022832
0.312300	-0.022934
0.312400	-0.062208
0.312500	-0.112518
0.312600	-0.136213
0.312700	-0.100833
0.312800	-0.020662
0.312900	-0.023583
0.313000	-0.085578
0.313100	-0.181330
0.313200	-0.237158
0.313300	-0.233263
0.313400	-0.211516
0.313500	-0.244623
0.313600	-0.342647
0.313700	-0.517272
0.313800	-0.647429
0.313900	-0.705205
0.314000	-0.744804
0.314100	-0.766226
0.314200	-0.822703
0.314300	-0.884374
0.314400	-0.946369
0.314500	-1.008040
0.314600	-1.054130
0.314700	-1.058025
0.314800	-1.045691
0.314900	-1.024918
0.315000	-1.007715
0.315100	-0.985319
0.315200	-0.975906
0.315300	-0.957729
0.315400	-0.939553
0.315500	-0.898655
0.315600	-0.824002
0.315700	-0.718512
0.315800	-0.657816
0.315900	-0.639315
0.316000	-0.624384
0.316100	-0.585759
0.316200	-0.548432
0.316300	-0.534475
0.316400	-0.482541
0.316500	-0.470207
0.316600	-0.449434
0.316700	-0.455601
0.316800	-0.448785
0.316900	-0.445539
0.317000	-0.448785
0.317100	-0.408861
0.317200	-0.363745
0.317300	-0.364394
0.317400	-0.314408
0.317500	-0.309864
0.317600	-0.267993
0.317700	-0.248193
0.317800	-0.172890
0.317900	-0.078113
0.318000	0.084178
0.318100	0.144875
0.318200	0.111768
0.318300	0.039061
0.318400	0.059835
0.318500	0.148770
0.318600	0.320149
0.318700	0.402593
0.318800	0.430831
0.318900	0.424989
0.319000	0.429533
0.319100	0.511977
0.319200	0.612922
0.319300	0.729446
0.319400	0.768396
0.319500	0.827795
0.319600	0.847919
0.319700	0.896606
0.319800	0.940100
0.319900	0.994954
0.320000	1.044615
0.320100	1.069932
0.320200	1.133226
0.320300	1.148806
0.320400	1.132577
0.320500	1.136147
0.320600	1.097846
0.320700	1.122190
0.320800	1.143937
0.320900	1.161140
0.321000	1.146209
0.321100	1.047536
0.321200	1.002419
0.321300	1.006314
0.321400	1.066362
0.321500	1.133226
0.321600	1.075775
0.321700	0.971584
0.321800	0.895308
0.321900	0.886544
0.322000	0.898229
0.322100	0.928739
0.322200	0.894334
0.322300	0.806048
0.322400	0.743079
0.322500	0.701208
0.322600	0.678812
0.322700	0.667127
0.322800	0.620062
0.322900	0.605781
0.323000	0.571700
0.323100	0.570726
0.323200	0.550602
0.323300	0.532101
0.323400	0.504836
0.323500	0.484063
0.323600	0.473676
0.323700	0.489256
0.323800	0.464263
0.323900	0.403891
0.324000	0.352932
0.324100	0.321123
0.324200	0.293858
0.324300	0.291586
0.324400	0.228617
0.324500	0.224722
0.324600	0.205247
0.324700	0.193562
0.324800	0.195185
0.324900	0.186097
0.325000	0.180579
0.325100	0.162727
0.325200	0.164025
0.325300	0.134164
0.325400	0.119558
0.325500	0.098784
0.325600	0.092293
0.325700	0.093916
0.325800	0.078985
0.325900	0.054317
0.326000	0.012121
0.326100	-0.023907
0.326200	-0.112843
0.326300	-0.272537
0.326400	-0.413081
0.326500	-0.418599
0.326600	-0.359850
0.326700	-0.342647
0.326800	-0.441969
0.326900	-0.612699
0.327000	-0.743505
0.327100	-0.761357
0.327200	-0.713968
0.327300	-0.677291
0.327400	-0.692871
0.327500	-0.747725
0.327600	-0.802255
0.327700	-0.829844
0.327800	-0.810045
0.327900	-0.799009
0.328000	-0.811668
0.328100	-0.849644
0.328200	-0.881453
0.328300	-0.927219
0.328400	-0.965844
0.328500	-1.023944
0.328600	-1.081071
0.328700	-1.141443
0.328800	-1.183314
0.328900	-1.227457
0.329000	-1.312173
0.329100	-1.375791
0.329200	-1.448822
0.329300	-1.485500
0.329400	-1.458560
0.329500	-1.445252
0.329600	-1.498159
0.329700	-1.603973
0.329800	-1.694207
0.329900	-1.702646
0.330000	-1.617930
0.330100	-1.545873
0.330200	-1.502378
0.330300	-1.570216
0.330400	-1.632536
0.330500	-1.653959
0.330600	-1.601376
0.330700	-1.545223
0.330800	-1.512765
0.330900	-1.499133
0.331000	-1.520555
0.331100	-1.513739
0.331200	-1.517958
0.331300	-1.509195
0.331400	-1.496536
0.331500	-1.489071
0.331600	-1.488421
0.331700	-1.478035
0.331800	-1.472192
0.331900	-1.507896
0.332000	-1.544250
0.332100	-1.571839
0.332200	-1.532565
0.332300	-1.498159
0.332400	-1.407276
0.332500	-1.378063
0.332600	-1.372546
0.332700	-1.333920
0.332800	-1.286531
0.332900	-1.232651
0.333000	-1.161892
0.333100	-1.103142
0.333200	-1.052183
0.333300	-1.008364
0.333400	-0.993758
0.333500	-0.940851
0.333600	-0.908393
0.333700	-0.881453
0.333800	-0.855162
0.333900	-0.794465
0.334000	-0.757138
0.334100	-0.722083
0.334200	-0.695467
0.334300	-0.684756
0.334400	-0.644508
0.334500	-0.583486
0.334600	-0.448785
0.334700	-0.316680
0.334800	-0.325444
0.334900	-0.382570
0.335000	-0.462742
0.335100	-0.438723
0.335200	-0.347840
0.335300	-0.212814
0.335400	-0.186523
0.335500	-0.208270
0.335600	-0.252413
0.335700	-0.251115
0.335800	-0.175812
0.335900	-0.090447
0.336000	-0.025206
0.336100	-0.055392
0.336200	-0.086227
0.336300	-0.104728
0.336400	-0.080060
0.336500	-0.066752
0.336600	-0.048251
0.336700	-0.039487
0.336800	-0.044356
0.336900	-0.038838
0.337000	-0.073568
0.337100	-0.100833
0.337200	-0.125502
0.337300	-0.170294
0.337400	-0.203726
0.337500	-0.203726
0.337600	-0.187821
0.337700	-0.274485
0.337800	-0.367640
0.337900	-0.441969
0.338000	-0.441644
0.338100	-0.375429
0.338200	-0.341024
0.338300	-0.405940
0.338400	-0.539668
0.338500	-0.596145
0.338600	-0.578618
0.338700	-0.523439
0.338800	-0.489033
0.338900	-0.495525
0.339000	-0.553625
0.339100	-0.593873
0.339200	-0.601338
0.339300	-0.573100
0.339400	-0.556222
0.339500	-0.584136
0.339600	-0.600365
0.339700	-0.627630
0.339800	-0.626980
0.339900	-0.639315
0.340000	-0.665281
0.340100	-0.690598
0.340200	-0.670150
0.340300	-0.676317
0.340400	-0.687353
0.340500	-0.722083
0.340600	-0.796737
0.340700	-0.825949
0.340800	-0.840231
0.340900	-0.824326
0.341000	-0.843152
0.341100	-0.876259
0.341200	-0.888269
0.341300	-0.900603
0.341400	-0.898980
0.341500	-0.909691
0.341600	-0.917806
0.341700	-0.889243
0.341800	-0.878856
0.341900	-0.886646
0.342000	-0.880803
0.342100	-0.862627
0.342200	-0.856460
0.342300	-0.855486
0.342400	-0.850293
0.342500	-0.864899
0.342600	-0.881128
0.342700	-0.893462
0.342800	-0.934360
0.342900	-1.027839
0.343000	-1.173252
0.343100	-1.229729
0.343200	-1.216421
0.343300	-1.127486
0.343400	-1.144689
0.343500	-1.249529
0.343600	-1.415066
0.343700	-1.481281
0.343800	-1.458235
0.343900	-1.402732
0.344000	-1.407600
0.344100	-1.453367
0.344200	-1.572813
0.344300	-1.649414
0.344400	-1.693233
0.344500	-1.708488
0.344600	-1.743543
0.344700	-1.770808
0.344800	-1.806512
0.344900	-1.851305
0.345000	-1.904861
0.345100	-1.932126
0.345200	-1.990226
0.345300	-2.014245
0.345400	-2.051248
0.345500	-2.068451
0.345600	-2.071047
0.345700	-2.082732
0.345800	-2.088900
0.345900	-2.109348
0.346000	-2.057090
0.346100	-1.988279
0.346200	-1.997367
0.346300	-2.029176
0.346400	-2.104479
0.346500	-2.171993
0.346600	-2.143754
0.346700	-2.079162
0.346800	-2.054494
0.346900	-2.110322
0.347000	-2.210618
0.347100	-2.301501
0.347200	-2.346943
0.347300	-2.339153
0.347400	-2.320976
0.347500	-2.327144
0.347600	-2.355707
0.347700	-2.387191
0.347800	-2.410886
0.347900	-2.396929
0.348000	-2.404070
0.348100	-2.381024
0.348200	-2.356356
0.348300	-2.326170
0.348400	-2.282351
0.348500	-2.283974
0.348600	-2.258007
0.348700	-2.243401
0.348800	-2.234637
0.348900	-2.136289
0.349000	-2.071697
0.349100	-2.007754
0.349200	-2.014895
0.349300	-2.006780
0.349400	-1.971076
0.349500	-1.923687
0.349600	-1.867859
0.349700	-1.826312
0.349800	-1.789959
0.349900	-1.778923
0.350000	-1.755877
0.350100	-1.763667
0.350200	-1.758799
0.350300	-1.755228
0.350400	-1.744842
0.350500	-1.722770
0.350600	-1.677653
0.350700	-1.656231
0.350800	-1.612087
0.350900	-1.607543
0.351000	-1.563400
0.351100	-1.533538
0.351200	-1.403381
0.351300	-1.316068
0.351400	-1.179744
0.351500	-1.252125
0.351600	-1.304383
0.351700	-1.359887
0.351800	-1.330674
0.351900	-1.219992
0.352000	-1.178445
0.352100	-1.190130
0.352200	-1.310875
0.352300	-1.374818
0.352400	-1.381958
0.352500	-1.342359
0.352600	-1.276469
0.352700	-1.303085
0.352800	-1.282636
0.352900	-1.334569
0.353000	-1.344956
0.353100	-1.335543
0.353200	-1.306655
0.353300	-1.310875
0.353400	-1.294970
0.353500	-1.272899
0.353600	-1.279390
0.353700	-1.314445
0.353800	-1.352421
0.353900	-1.413767
0.354000	-1.452068
0.354100	-1.480631
0.354200	-1.514388
0.354300	-1.551066
0.354400	-1.690636
0.354500	-1.827935
0.354600	-1.860069
0.354700	-1.839620
0.354800	-1.770484
0.354900	-1.777949
0.355000	-1.834102
0.355100	-1.896097
0.355200	-1.883763
0.355300	-1.810083
0.355400	-1.706216
0.355500	-1.635457
0.355600	-1.673433
0.355700	-1.692259
0.355800	-1.670837
0.355900	-1.640651
0.356000	-1.602025
0.356100	-1.588068
0.356200	-1.592288
0.356300	-1.615982
0.356400	-1.593262
0.356500	-1.568593
0.356600	-1.577682
0.356700	-1.577032
0.356800	-1.564049
0.356900	-1.520880
0.357000	-1.489720
0.357100	-1.477386
0.357200	-1.508546
0.357300	-1.520231
0.357400	-1.533214
0.357500	-1.507247
0.357600	-1.445901
0.357700	-1.472192
0.357800	-1.438760
0.357900	-1.417338
0.358000	-1.408574
0.358100	-1.393968
0.358200	-1.382608
0.358300	-1.372546
0.358400	-1.376116
0.358500	-1.367352
0.358600	-1.379686
0.358700	-1.373844
0.358800	-1.371247
0.358900	-1.383257
0.359000	-1.401758
0.359100	-1.404030
0.359200	-1.442006
0.359300	-1.476736
0.359400	-1.511791
0.359500	-1.574760
0.359600	-1.676030
0.359700	-1.799696
0.359800	-1.820145
0.359900	-1.737052
0.360000	-1.680250
0.360100	-1.696479
0.360200	-1.819820
0.360300	-1.913300
0.360400	-1.940241
0.360500	-1.867859
0.360600	-1.802617
0.360700	-1.791257
0.360800	-1.853252
0.360900	-1.918493
0.361000	-1.972374
0.361100	-1.954522
0.361200	-1.937319
0.361300	-1.927906
0.361400	-1.948030
0.361500	-1.986007
0.361600	-2.035668
0.361700	-2.072670
0.361800	-2.098637
0.361900	-2.153492
0.362000	-2.192766
0.362100	-2.235936
0.362200	-2.247621
0.362300	-2.261902
0.362400	-2.292413
0.362500	-2.329091
0.362600	-2.317731
0.362700	-2.253788
0.362800	-2.191468
0.362900	-2.172317
0.363000	-2.245024
0.363100	-2.323249
0.363200	-2.346943
0.363300	-2.281377
0.363400	-2.203802
0.363500	-2.190169
0.363600	-2.247296
0.363700	-2.397254
0.363800	-2.479373
0.363900	-2.485865
0.364000	-2.460872
0.364100	-2.453406
0.364200	-2.465741
0.364300	-2.518323
0.364400	-2.551755
0.364500	-2.574152
0.364600	-2.565063
0.364700	-2.575774
0.364800	-2.557598
0.364900	-2.543641
0.365000	-2.523517
0.365100	-2.476452
0.365200	-2.460223
0.365300	-2.468986
0.365400	-2.452433
0.365500	-2.419974
0.365600	-2.346943
0.365700	-2.257683
0.365800	-2.191792
0.365900	-2.168747
0.366000	-2.128174
0.366100	-2.064880
0.366200	-2.020737
0.366300	-1.969778
0.366400	-1.891878
0.366500	-1.857472
0.366600	-1.813329
0.366700	-1.797099
0.366800	-1.790283
0.366900	-1.779897
0.367000	-1.784441
0.367100	-1.784441
0.367200	-1.787687
0.367300	-1.824689
0.367400	-1.856498
0.367500	-1.918818
0.367600	-1.945109
0.367700	-1.994446
0.367800	-1.982761
0.367900	-1.908431
0.368000	-1.794827
0.368100	-1.754255
0.368200	-1.885061
0.368300	-1.931801
0.368400	-1.931801
0.368500	-1.839944
0.368600	-1.689338
0.368700	-1.634484
0.368800	-1.643896
0.368900	-1.736727
0.369000	-1.717901
0.369100	-1.692908
0.369200	-1.601052
0.369300	-1.586121
0.369400	-1.576059
0.369500	-1.590016
0.369600	-1.642598
0.369700	-1.644870
0.369800	-1.631562
0.369900	-1.620527
0.370000	-1.624422
0.370100	-1.623772
0.370200	-1.636431
0.370300	-1.657204
0.370400	-1.682846
0.370500	-1.703944
0.370600	-1.718550
0.370700	-1.750035
0.370800	-1.717252
0.370900	-1.698102
0.371000	-1.715629
0.371100	-1.790932
0.371200	-1.798722
0.371300	-1.756851
0.371400	-1.644221
0.371500	-1.583524
0.371600	-1.586445
0.371700	-1.636431
0.371800	-1.683171
0.371900	-1.659152
0.372000	-1.578006
0.372100	-1.524775
0.372200	-1.501080
0.372300	-1.544250
0.372400	-1.559830
0.372500	-1.562102
0.372600	-1.536784
0.372700	-1.493939
0.372800	-1.504326
0.372900	-1.498159
0.373000	-1.501729
0.373100	-1.481930
0.373200	-1.491343
0.373300	-1.505949
0.373400	-1.504326
0.373500	-1.493939
0.373600	-1.503677
0.373700	-1.490369
0.373800	-1.495238
0.373900	-1.544250
0.374000	-1.573462
0.374100	-1.582550
0.374200	-1.555610
0.374300	-1.544574
0.374400	-1.552040
0.374500	-1.562426
0.374600	-1.561777
0.374700	-1.573137
0.374800	-1.573462
0.374900	-1.596183
0.375000	-1.601701
0.375100	-1.591963
0.375200	-1.596183
0.375300	-1.622474
0.375400	-1.637405
0.375500	-1.655906
0.375600	-1.666942
0.375700	-1.706865
0.375800	-1.736727
0.375900	-1.778274
0.376000	-1.821119
0.376100	-1.876947
0.376200	-1.955820
0.376300	-2.097339
0.376400	-2.205425
0.376500	-2.227496
0.376600	-2.185301
0.376700	-2.182704
0.376800	-2.307344
0.376900	-2.503068
0.377000	-2.647183
0.377100	-2.694572
0.377200	-2.691002
0.377300	-2.701713
0.377400	-2.780262
0.377500	-2.914315
0.377600	-3.011042
0.377700	-3.077906
0.377800	-3.112312
0.377900	-3.134059
0.378000	-3.169114
0.378100	-3.205792
0.378200	-3.232083
0.378300	-3.257076
0.378400	-3.269086
0.378500	-3.290509
0.378600	-3.328485
0.378700	-3.368409
0.378800	-3.392753
0.378900	-3.424238
0.379000	-3.451827
0.379100	-3.501813
0.379200	-3.550501
0.379300	-3.557967
0.379400	-3.511551
0.379500	-3.513823
0.379600	-3.561212
0.379700	-3.670273
0.379800	-3.771544
0.379900	-3.764403
0.380000	-3.694942
0.380100	-3.630349
0.380200	-3.652421
0.380300	-3.705004
0.380400	-3.778360
0.380500	-3.789071
0.380600	-3.729023
0.380700	-3.639113
0.380800	-3.612172
0.380900	-3.601461
0.381000	-3.596917
0.381100	-3.586855
0.381200	-3.562511
0.381300	-3.526157
0.381400	-3.490128
0.381500	-3.446309
0.381600	-3.357698
0.381700	-3.296027
0.381800	-3.246041
0.381900	-3.222021
0.382000	-3.207740
0.382100	-3.192160
0.382200	-3.107443
0.382300	-3.033438
0.382400	-3.000979
0.382500	-2.916912
0.382600	-2.889322
0.382700	-2.843881
0.382800	-2.796816
0.382900	-2.751374
0.383000	-2.688080
0.383100	-2.641016
0.383200	-2.617970
0.383300	-2.609207
0.383400	-2.589732
0.383500	-2.575774
0.383600	-2.583564
0.383700	-2.568958
0.383800	-2.563765
0.383900	-2.583240
0.384000	-2.555650
0.384100	-2.595899
0.384200	-2.578696
0.384300	-2.601092
0.384400	-2.551106
0.384500	-2.525139
0.384600	-2.399850
0.384700	-2.289816
0.384800	-2.334934
0.384900	-2.405693
0.385000	-2.484567
0.385100	-2.413483
0.385200	-2.323898
0.385300	-2.243401
0.385400	-2.222303
0.385500	-2.302800
0.385600	-2.330065
0.385700	-2.306370
0.385800	-2.231391
0.385900	-2.156088
0.386000	-2.133043
0.386100	-2.136938
0.386200	-2.176537
0.386300	-2.183678
0.386400	-2.158360
0.386500	-2.157062
0.386600	-2.169072
0.386700	-2.183353
0.386800	-2.190494
0.386900	-2.217434
0.387000	-2.227172
0.387100	-2.255411
0.387200	-2.250542
0.387300	-2.246322
0.387400	-2.226847
0.387500	-2.185950
0.387600	-2.170045
0.387700	-2.180107
0.387800	-2.308642
0.387900	-2.282351
0.388000	-2.247945
0.388100	-2.147649
0.388200	-2.130446
0.388300	-2.211267
0.388400	-2.323573
0.388500	-2.397254
0.388600	-2.358304
0.388700	-2.307344
0.388800	-2.279430
0.388900	-2.303124
0.389000	-2.387516
0.389100	-2.403421
0.389200	-2.423220
0.389300	-2.400175
0.389400	-2.401798
0.389500	-2.424194
0.389600	-2.446915
0.389700	-2.462495
0.389800	-2.431984
0.389900	-2.440099
0.390000	-2.462819
0.390100	-2.475154
0.390200	-2.485540
0.390300	-2.466714
0.390400	-2.440423
0.390500	-2.494304
0.390600	-2.530333
0.390700	-2.543641
0.390800	-2.559870
0.390900	-2.497874
0.391000	-2.526113
0.391100	-2.508586
0.391200	-2.490734
0.391300	-2.469311
0.391400	-2.442695
0.391500	-2.417053
0.391600	-2.385893
0.391700	-2.380051
0.391800	-2.355382
0.391900	-2.326494
0.392000	-2.320327
0.392100	-2.296633
0.392200	-2.282351
0.392300	-2.282026
0.392400	-2.246971
0.392500	-2.238857
0.392600	-2.253463
0.392700	-2.253463
0.392800	-2.287220
0.392900	-2.381674
0.393000	-2.517674
0.393100	-2.531956
0.393200	-2.463469
0.393300	-2.375831
0.393400	-2.390762
0.393500	-2.510858
0.393600	-2.647507
0.393700	-2.714047
0.393800	-2.693923
0.393900	-2.605312
0.394000	-2.627059
0.394100	-2.702687
0.394200	-2.820835
0.394300	-2.888673
0.394400	-2.902306
0.394500	-2.911070
0.394600	-2.915289
0.394700	-2.934440
0.394800	-2.974688
0.394900	-3.015261
0.395000	-3.024674
0.395100	-3.036034
0.395200	-3.069791
0.395300	-3.071739
0.395400	-3.095758
0.395500	-3.085371
0.395600	-3.110364
0.395700	-3.148990
0.395800	-3.191510
0.395900	-3.215854
0.396000	-3.173009
0.396100	-3.118803
0.396200	-3.118479
0.396300	-3.189238
0.396400	-3.266814
0.396500	-3.341468
0.396600	-3.317125
0.396700	-3.233057
0.396800	-3.217802
0.396900	-3.265191
0.397000	-3.376524
0.397100	-3.464162
0.397200	-3.506033
0.397300	-3.472601
0.397400	-3.447608
0.397500	-3.453450
0.397600	-3.479092
0.397700	-3.511876
0.397800	-3.494673
0.397900	-3.491427
0.398000	-3.484610
0.398100	-3.463512
0.398200	-3.454749
0.398300	-3.411254
0.398400	-3.367435
0.398500	-3.360944
0.398600	-3.353154
0.398700	-3.376524
0.398800	-3.345688
0.398900	-3.273306
0.399000	-3.235005
0.399100	-3.138928
0.399200	-3.114584
0.399300	-3.085696
0.399400	-3.033113
0.399500	-2.981180
0.399600	-2.954888
0.399700	-2.892893
0.399800	-2.855890
0.399900	-2.843881
0.400000	-2.833169
0.400100	-2.827651
0.400200	-2.828625
0.400300	-2.817914
0.400400	-2.798764
0.400500	-2.766954
0.400600	-2.744558
0.400700	-2.707231
0.400800	-2.693923
0.400900	-2.694248
0.401000	-2.669255
0.401100	-2.678992
0.401200	-2.546237
0.401300	-2.432633
0.401400	-2.326170
0.401500	-2.426791
0.401600	-2.532929
0.401700	-2.562467
0.401800	-2.525464
0.401900	-2.382323
0.402000	-2.303774
0.402100	-2.346294
0.402200	-2.431335
0.402300	-2.502743
0.402400	-2.464442
0.402500	-2.411860
0.402600	-2.338829
0.402700	-2.314160
0.402800	-2.318380
0.402900	-2.356356
0.403000	-2.342724
0.403100	-2.341101
0.403200	-2.326494
0.403300	-2.295984
0.403400	-2.278456
0.403500	-2.269368
0.403600	-2.281377
0.403700	-2.277158
0.403800	-2.291764
0.403900	-2.317731
0.404000	-2.307669
0.404100	-2.295010
0.404200	-2.263525
0.404300	-2.252489
0.404400	-2.344996
0.404500	-2.412509
0.404600	-2.410561
0.404700	-2.353110
0.404800	-2.245673
0.404900	-2.255086
0.405000	-2.307019
0.405100	-2.359926
0.405200	-2.348891
0.405300	-2.263850
0.405400	-2.155764
0.405500	-2.091821
0.405600	-2.113892
0.405700	-2.138236
0.405800	-2.132069
0.405900	-2.122332
0.406000	-2.070723
0.406100	-2.078188
0.406200	-2.083057
0.406300	-2.103830
0.406400	-2.105778
0.406500	-2.100260
0.406600	-2.106102
0.406700	-2.135964
0.406800	-2.171019
0.406900	-2.152193
0.407000	-2.151544
0.407100	-2.173940
0.407200	-2.235286
0.407300	-2.262227
0.407400	-2.289816
0.407500	-2.298905
0.407600	-2.248594
0.407700	-2.275859
0.407800	-2.261902
0.407900	-2.240480
0.408000	-2.225874
0.408100	-2.221979
0.408200	-2.190819
0.408300	-2.175563
0.408400	-2.140833
0.408500	-2.123630
0.408600	-2.111945
0.408700	-2.114866
0.408800	-2.112269
0.408900	-2.117138
0.409000	-2.114217
0.409100	-2.116814
0.409200	-2.139859
0.409300	-2.139210
0.409400	-2.165177
0.409500	-2.203802
0.409600	-2.305072
0.409700	-2.378103
0.409800	-2.360900
0.409900	-2.254112
0.410000	-2.202504
0.410100	-2.221654
0.410200	-2.354084
0.410300	-2.456977
0.410400	-2.496576
0.410500	-2.456977
0.410600	-2.421922
0.410700	-2.434581
0.410800	-2.503717
0.410900	-2.587135
0.411000	-2.644586
0.411100	-2.654973
0.411200	-2.644262
0.411300	-2.607584
0.411400	-2.623164
0.411500	-2.629331
0.411600	-2.637121
0.411700	-2.642639
0.411800	-2.655947
0.411900	-2.663737
0.412000	-2.673150
0.412100	-2.685159
0.412200	-2.690353
0.412300	-2.714047
0.412400	-2.738716
0.412500	-2.767603
0.412600	-2.776043
0.412700	-2.714696
0.412800	-2.661465
0.412900	-2.689054
0.413000	-2.774420
0.413100	-2.866926
0.413200	-2.888673
0.413300	-2.854592
0.413400	-2.784806
0.413500	-2.795193
0.413600	-2.878936
0.413700	-2.981829
0.413800	-3.045772
0.413900	-3.070116
0.414000	-3.050965
0.414100	-3.043500
0.414200	-3.083748
0.414300	-3.108092
0.414400	-3.135033
0.414500	-3.147042
0.414600	-3.140875
0.414700	-3.145419
0.414800	-3.134384
0.414900	-3.080178
0.415000	-3.032464
0.415100	-2.982154
0.415200	-2.946774
0.415300	-2.956187
0.415400	-2.943203
0.415500	-2.892893
0.415600	-2.840310
0.415700	-2.786105
0.415800	-2.707880
0.415900	-2.697169
0.416000	-2.664061
0.416100	-2.623813
0.416200	-2.574152
0.416300	-2.525789
0.416400	-2.504366
0.416500	-2.487163
0.416600	-2.477101
0.416700	-2.484242
0.416800	-2.479373
0.416900	-2.501769
0.417000	-2.486189
0.417100	-2.464767
0.417200	-2.457626
0.417300	-2.444643
0.417400	-2.460547
0.417500	-2.428089
0.417600	-2.461196
0.417700	-2.409263
0.417800	-2.366418
0.417900	-2.219382
0.418000	-2.077539
0.418100	-2.022685
0.418200	-2.107401
0.418300	-2.150570
0.418400	-2.088250
0.418500	-1.999639
0.418600	-1.856174
0.418700	-1.833777
0.418800	-1.830207
0.418900	-1.895448
0.419000	-1.894799
0.419100	-1.783142
0.419200	-1.689987
0.419300	-1.622149
0.419400	-1.593586
0.419500	-1.575085
0.419600	-1.579629
0.419700	-1.549443
0.419800	-1.499457
0.419900	-1.460183
0.420000	-1.448173
0.420100	-1.422856
0.420200	-1.417662
0.420300	-1.424154
0.420400	-1.453042
0.420500	-1.487123
0.420600	-1.510818
0.420700	-1.529643
0.420800	-1.517958
0.420900	-1.507247
0.421000	-1.532889
0.421100	-1.654608
0.421200	-1.647791
0.421300	-1.615658
0.421400	-1.472517
0.421500	-1.404679
0.421600	-1.390722
0.421700	-1.454340
0.421800	-1.467324
0.421900	-1.401109
0.422000	-1.296269
0.422100	-1.223562
0.422200	-1.198569
0.422300	-1.255047
0.422400	-1.268679
0.422500	-1.267381
0.422600	-1.273872
0.422700	-1.286531
0.422800	-1.332297
0.422900	-1.353720
0.423000	-1.399161
0.423100	-1.408250
0.423200	-1.437462
0.423300	-1.477386
0.423400	-1.507247
0.423500	-1.504326
0.423600	-1.486799
0.423700	-1.434541
0.423800	-1.425777
0.423900	-1.470569
0.424000	-1.480956
0.424100	-1.432269
0.424200	-1.358588
0.424300	-1.337815
0.424400	-1.334894
0.424500	-1.296918
0.424600	-1.279066
0.424700	-1.254073
0.424800	-1.230703
0.424900	-1.197271
0.425000	-1.172603
0.425100	-1.136250
0.425200	-1.131381
0.425300	-1.128135
0.425400	-1.114503
0.425500	-1.106063
0.425600	-1.089185
0.425700	-1.125863
0.425800	-1.125214
0.425900	-1.162541
0.426000	-1.187858
0.426100	-1.206359
0.426200	-1.306006
0.426300	-1.431944
0.426400	-1.504975
0.426500	-1.442331
0.426600	-1.377414
0.426700	-1.346903
0.426800	-1.429997
0.426900	-1.567620
0.427000	-1.640975
0.427100	-1.642923
0.427200	-1.604622
0.427300	-1.576383
0.427400	-1.615009
0.427500	-1.683820
0.427600	-1.735429
0.427700	-1.768861
0.427800	-1.764317
0.427900	-1.775352
0.428000	-1.776002
0.428100	-1.792555
0.428200	-1.814952
0.428300	-1.833777
0.428400	-1.862665
0.428500	-1.898369
0.428600	-1.948680
0.428700	-2.006455
0.428800	-2.062933
0.428900	-2.094417
0.429000	-2.129148
0.429100	-2.211916
0.429200	-2.267096
0.429300	-2.267745
0.429400	-2.225224
0.429500	-2.220680
0.429600	-2.285921
0.429700	-2.372910
0.429800	-2.451459
0.429900	-2.456328
0.430000	-2.377454
0.430100	-2.315134
0.430200	-2.340776
0.430300	-2.432633
0.430400	-2.519297
0.430500	-2.523517
0.430600	-2.475803
0.430700	-2.430361
0.430800	-2.408614
0.430900	-2.366094
0.431000	-2.351487
0.431100	-2.320976
0.431200	-2.288194
0.431300	-2.254112
0.431400	-2.200232
0.431500	-2.174589
0.431600	-2.106427
0.431700	-2.041186
0.431800	-1.982112
0.431900	-1.939916
0.432000	-1.904212
0.432100	-1.855524
0.432200	-1.776326
0.432300	-1.707515
0.432400	-1.643572
0.432500	-1.607219
0.432600	-1.582550
0.432700	-1.555935
0.432800	-1.531915
0.432900	-1.504651
0.433000	-1.469920
0.433100	-1.447524
0.433200	-1.437137
0.433300	-1.442980
0.433400	-1.455639
0.433500	-1.454340
0.433600	-1.457586
0.433700	-1.437137
0.433800	-1.401433
0.433900	-1.402732
0.434000	-1.374818
0.434100	-1.358913
0.434200	-1.354369
0.434300	-1.347877
0.434400	-1.327753
0.434500	-1.292049
0.434600	-1.180068
0.434700	-1.092431
0.434800	-1.150856
0.434900	-1.238493
0.435000	-1.240765
0.435100	-1.196946
0.435200	-1.083992
0.435300	-1.006741
0.435400	-1.012584
0.435500	-1.075228
0.435600	-1.120670
0.435700	-1.090808
0.435800	-1.033032
0.435900	-0.970713
0.436000	-0.943123
0.436100	-0.934360
0.436200	-0.955782
0.436300	-0.940527
0.436400	-0.936307
0.436500	-0.878531
0.436600	-0.859056
0.436700	-0.831792
0.436800	-0.799333
0.436900	-0.797061
0.437000	-0.769796
0.437100	-0.777262
0.437200	-0.761033
0.437300	-0.746427
0.437400	-0.695792
0.437500	-0.669501
0.437600	-0.605233
0.437700	-0.676966
0.437800	-0.763629
0.437900	-0.786675
0.438000	-0.728250
0.438100	-0.650999
0.438200	-0.654245
0.438300	-0.710073
0.438400	-0.799658
0.438500	-0.828870
0.438600	-0.769472
0.438700	-0.682808
0.438800	-0.643859
0.438900	-0.663658
0.439000	-0.688976
0.439100	-0.681835
0.439200	-0.685730
0.439300	-0.626980
0.439400	-0.609128
0.439500	-0.610751
0.439600	-0.637042
0.439700	-0.655219
0.439800	-0.647754
0.439900	-0.662360
0.440000	-0.674369
0.440100	-0.688002
0.440200	-0.686379
0.440300	-0.683133
0.440400	-0.681186
0.440500	-0.706178
0.440600	-0.751620
0.440700	-0.771744
0.440800	-0.757462
0.440900	-0.701959
0.441000	-0.701634
0.441100	-0.714293
0.441200	-0.717214
0.441300	-0.714942
0.441400	-0.716240
0.441500	-0.716890
0.441600	-0.726302
0.441700	-0.726952
0.441800	-0.732145
0.441900	-0.726627
0.442000	-0.703257
0.442100	-0.713644
0.442200	-0.707152
0.442300	-0.714942
0.442400	-0.728250
0.442500	-0.744154
0.442600	-0.752269
0.442700	-0.778560
0.442800	-0.811343
0.442900	-0.921701
0.443000	-1.026865
0.443100	-1.030111
0.443200	-0.981424
0.443300	-0.900603
0.443400	-0.927219
0.443500	-1.046665
0.443600	-1.169357
0.443700	-1.226483
0.443800	-1.188183
0.443900	-1.134951
0.444000	-1.120345
0.444100	-1.179094
0.444200	-1.239791
0.444300	-1.302436
0.444400	-1.286207
0.444500	-1.271600
0.444600	-1.257319
0.444700	-1.269977
0.444800	-1.265433
0.444900	-1.262188
0.445000	-1.281987
0.445100	-1.293347
0.445200	-1.293997
0.445300	-1.313147
0.445400	-1.354693
0.445500	-1.369949
0.445600	-1.375467
0.445700	-1.408574
0.445800	-1.429997
0.445900	-1.425452
0.446000	-1.372221
0.446100	-1.307629
0.446200	-1.266732
0.446300	-1.316717
0.446400	-1.415390
0.446500	-1.456612
0.446600	-1.405004
0.446700	-1.325156
0.446800	-1.280364
0.446900	-1.336517
0.447000	-1.426102
0.447100	-1.490694
0.447200	-1.464078
0.447300	-1.392020
0.447400	-1.352421
0.447500	-1.352421
0.447600	-1.370273
0.447700	-1.374168
0.447800	-1.374818
0.447900	-1.374493
0.448000	-1.381958
0.448100	-1.416364
0.448200	-1.424803
0.448300	-1.396565
0.448400	-1.361834
0.448500	-1.371572
0.448600	-1.370598
0.448700	-1.379362
0.448800	-1.343982
0.448900	-1.283935
0.449000	-1.236221
0.449100	-1.168708
0.449200	-1.164813
0.449300	-1.146312
0.449400	-1.103791
0.449500	-1.056078
0.449600	-1.004469
0.449700	-0.947018
0.449800	-0.923324
0.449900	-0.906445
0.450000	-0.887944
0.450100	-0.865548
0.450200	-0.886646
0.450300	-0.874636
0.450400	-0.888269
0.450500	-0.861004
0.450600	-0.870417
0.450700	-0.853214
0.450800	-0.835037
0.450900	-0.848670
0.451000	-0.805176
0.451100	-0.777262
0.451200	-0.648727
0.451300	-0.491630
0.451400	-0.406589
0.451500	-0.456575
0.451600	-0.554599
0.451700	-0.527009
0.451800	-0.443267
0.451900	-0.314084
0.452000	-0.241702
0.452100	-0.263773
0.452200	-0.335181
0.452300	-0.410484
0.452400	-0.363745
0.452500	-0.296556
0.452600	-0.247544
0.452700	-0.247869
0.452800	-0.278704
0.452900	-0.302399
0.453000	-0.326418
0.453100	-0.326093
0.453200	-0.347515
0.453300	-0.376079
0.453400	-0.403344
0.453500	-0.448785
0.453600	-0.495525
0.453700	-0.547782
0.453800	-0.534150
0.453900	-0.563687
0.454000	-0.558169
0.454100	-0.559467
0.454200	-0.513052
0.454300	-0.495200
0.454400	-0.572126
0.454500	-0.587381
0.454600	-0.549730
0.454700	-0.473453
0.454800	-0.358551
0.454900	-0.351086
0.455000	-0.398150
0.455100	-0.438398
0.455200	-0.410484
0.455300	-0.313110
0.455400	-0.239754
0.455500	-0.194637
0.455600	-0.221578
0.455700	-0.246895
0.455800	-0.234561
0.455900	-0.232938
0.456000	-0.201778
0.456100	-0.211516
0.456200	-0.231315
0.456300	-0.260528
0.456400	-0.264423
0.456500	-0.255334
0.456600	-0.274485
0.456700	-0.296556
0.456800	-0.317005
0.456900	-0.336480
0.457000	-0.332585
0.457100	-0.354656
0.457200	-0.420546
0.457300	-0.468909
0.457400	-0.507859
0.457500	-0.489682
0.457600	-0.480919
0.457700	-0.511105
0.457800	-0.512728
0.457900	-0.508183
0.458000	-0.504288
0.458100	-0.505911
0.458200	-0.488709
0.458300	-0.487735
0.458400	-0.473778
0.458500	-0.447162
0.458600	-0.440995
0.458700	-0.432231
0.458800	-0.450408
0.458900	-0.449434
0.459000	-0.461768
0.459100	-0.481568
0.459200	-0.513701
0.459300	-0.571152
0.459400	-0.598742
0.459500	-0.676317
0.459600	-0.786999
0.459700	-0.903849
0.459800	-0.905147
0.459900	-0.861004
0.460000	-0.831792
0.460100	-0.901901
0.460200	-1.042445
0.460300	-1.166436
0.460400	-1.186235
0.460500	-1.133978
0.460600	-1.081395
0.460700	-1.083343
0.460800	-1.146312
0.460900	-1.233624
0.461000	-1.260240
0.461100	-1.206359
0.461200	-1.223562
0.461300	-1.223887
0.461400	-1.261863
0.461500	-1.276794
0.461600	-1.286856
0.461700	-1.300488
0.461800	-1.318016
0.461900	-1.345605
0.462000	-1.364431
0.462100	-1.384230
0.462200	-1.384555
0.462300	-1.402407
0.462400	-1.423505
0.462500	-1.465051
0.462600	-1.459858
0.462700	-1.399161
0.462800	-1.350149
0.462900	-1.377739
0.463000	-1.463753
0.463100	-1.539381
0.463200	-1.556584
0.463300	-1.479009
0.463400	-1.391371
0.463500	-1.407600
0.463600	-1.477386
0.463700	-1.561452
0.463800	-1.571190
0.463900	-1.543276
0.464000	-1.488097
0.464100	-1.449147
0.464200	-1.454665
0.464300	-1.474464
0.464400	-1.501080
0.464500	-1.520555
0.464600	-1.504326
0.464700	-1.496211
0.464800	-1.466350
0.464900	-1.440059
0.465000	-1.389424
0.465100	-1.345930
0.465200	-1.313796
0.465300	-1.286856
0.465400	-1.246932
0.465500	-1.141443
0.465600	-1.064192
0.465700	-0.985968
0.465800	-0.902226
0.465900	-0.833415
0.466000	-0.782131
0.466100	-0.717539
0.466200	-0.675019
0.466300	-0.589653
0.466400	-0.531553
0.466500	-0.482217
0.466600	-0.461768
0.466700	-0.424766
0.466800	-0.399449
0.466900	-0.361472
0.467000	-0.339401
0.467100	-0.289091
0.467200	-0.260203
0.467300	-0.229043
0.467400	-0.219630
0.467500	-0.254685
0.467600	-0.242026
0.467700	-0.289740
0.467800	-0.243649
0.467900	-0.202427
0.468000	-0.094017
0.468100	-0.125502
0.468200	-0.232938
0.468300	-0.288117
0.468400	-0.277730
0.468500	-0.168022
0.468600	-0.039163
0.468700	0.001734
0.468800	-0.004433
0.468900	-0.059287
0.469000	-0.028776
0.469100	0.036789
0.469200	0.150717
0.469300	0.208168
0.469400	0.232837
0.469500	0.234784
0.469600	0.238030
0.469700	0.258803
0.469800	0.259777
0.469900	0.277629
0.470000	0.274058
0.470100	0.288989
0.470200	0.302622
0.470300	0.246144
0.470400	0.211090
0.470500	0.182851
0.470600	0.145524
0.470700	0.147796
0.470800	0.156560
0.470900	0.157858
0.471000	0.090994
0.471100	-0.011249
0.471200	-0.080385
0.471300	-0.062857
0.471400	0.024455
0.471500	0.044255
0.471600	-0.014819
0.471700	-0.117062
0.471800	-0.172241
0.471900	-0.140108
0.472000	-0.061234
0.472100	-0.007354
0.472200	-0.021635
0.472300	-0.067726
0.472400	-0.090122
0.472500	-0.105377
0.472600	-0.064480
0.472700	-0.047277
0.472800	-0.042409
0.472900	-0.047602
0.473000	-0.067077
0.473100	-0.055716
0.473200	-0.065454
0.473300	-0.070647
0.473400	-0.069998
0.473500	-0.049549
0.473600	-0.013196
0.473700	0.005305
0.473800	-0.008977
0.473900	-0.050523
0.474000	-0.063831
0.474100	-0.031048
0.474200	0.048799
0.474300	0.051395
0.474400	0.054317
0.474500	0.053992
0.474600	0.044579
0.474700	0.024455
0.474800	0.017964
0.474900	0.006279
0.475000	-0.030075
0.475100	-0.033645
0.475200	-0.025206
0.475300	-0.021635
0.475400	-0.022934
0.475500	-0.021311
0.475600	0.002384
0.475700	-0.019688
0.475800	-0.011573
0.475900	-0.003134
0.476000	-0.014819
0.476100	-0.041110
0.476200	-0.123554
0.476300	-0.225473
0.476400	-0.274160
0.476500	-0.239754
0.476600	-0.160232
0.476700	-0.135239
0.476800	-0.229692
0.476900	-0.360499
0.477000	-0.440346
0.477100	-0.421520
0.477200	-0.377377
0.477300	-0.373807
0.477400	-0.439372
0.477500	-0.524737
0.477600	-0.585759
0.477700	-0.623735
0.477800	-0.645482
0.477900	-0.689949
0.478000	-0.719162
0.478100	-0.727276
0.478200	-0.761682
0.478300	-0.782780
0.478400	-0.806150
0.478500	-0.835037
0.478600	-0.875935
0.478700	-0.920078
0.478800	-0.962923
0.478900	-0.992135
0.479000	-1.010636
0.479100	-1.065491
0.479200	-1.081720
0.479300	-1.068737
0.479400	-1.016154
0.479500	-0.997004
0.479600	-1.037577
0.479700	-1.128784
0.479800	-1.187858
0.479900	-1.149882
0.480000	-1.062245
0.480100	-0.993433
0.480200	-1.027515
0.480300	-1.106388
0.480400	-1.178445
0.480500	-1.177147
0.480600	-1.133004
0.480700	-1.111906
0.480800	-1.092431
0.480900	-1.111581
0.481000	-1.109958
0.481100	-1.108011
0.481200	-1.101844
0.481300	-1.090484
0.481400	-1.090484
0.481500	-1.066140
0.481600	-1.011610
0.481700	-0.951562
0.481800	-0.933061
0.481900	-0.916832
0.482000	-0.896383
0.482100	-0.862302
0.482200	-0.777586
0.482300	-0.698064
0.482400	-0.590952
0.482500	-0.529606
0.482600	-0.493577
0.482700	-0.431258
0.482800	-0.362122
0.482900	-0.292337
0.483000	-0.209893
0.483100	-0.139134
0.483200	-0.109597
0.483300	-0.090447
0.483400	-0.083631
0.483500	-0.075841
0.483600	-0.091745
0.483700	-0.074542
0.483800	-0.071946
0.483900	-0.033970
0.484000	-0.050848
0.484100	-0.052795
0.484200	-0.089798
0.484300	-0.098886
0.484400	-0.129397
0.484500	-0.078113
0.484600	0.024455
0.484700	0.111443
0.484800	0.008875
0.484900	-0.094017
0.485000	-0.160232
0.485100	-0.131993
0.485200	-0.039812
0.485300	0.026727
0.485400	0.004007
0.485500	-0.059287
0.485600	-0.114466
0.485700	-0.116089
0.485800	-0.057015
0.485900	-0.029750
0.486000	-0.023258
0.486100	-0.050523
0.486200	-0.109922
0.486300	-0.126475
0.486400	-0.150170
0.486500	-0.163153
0.486600	-0.177759
0.486700	-0.171592
0.486800	-0.184251
0.486900	-0.168996
0.487000	-0.208270
0.487100	-0.173540
0.487200	-0.145950
0.487300	-0.116738
0.487400	-0.062208
0.487500	-0.040137
0.487600	0.003682
0.487700	-0.057664
0.487800	-0.097263
0.487900	-0.111545
0.488000	-0.032671
0.488100	0.063405
0.488200	0.054966
0.488300	-0.031048
0.488400	-0.139459
0.488500	-0.160232
0.488600	-0.106676
0.488700	-0.065454
0.488800	-0.071621
0.488900	-0.115115
0.489000	-0.179707
0.489100	-0.198857
0.489200	-0.215086
0.489300	-0.177110
0.489400	-0.190093
0.489500	-0.202427
0.489600	-0.221578
0.489700	-0.226771
0.489800	-0.225148
0.489900	-0.237807
0.490000	-0.263449
0.490100	-0.249816
0.490200	-0.240403
0.490300	-0.215735
0.490400	-0.209244
0.490500	-0.259878
0.490600	-0.296556
0.490700	-0.324795
0.490800	-0.299802
0.490900	-0.289740
0.491000	-0.321224
0.491100	-0.349788
0.491200	-0.358876
0.491300	-0.395554
0.491400	-0.410484
0.491500	-0.424441
0.491600	-0.427687
0.491700	-0.441644
0.491800	-0.452355
0.491900	-0.467286
0.492000	-0.474102
0.492100	-0.464689
0.492200	-0.458522
0.492300	-0.450408
0.492400	-0.443267
0.492500	-0.452680
0.492600	-0.483191
0.492700	-0.517921
0.492800	-0.583162
0.492900	-0.715267
0.493000	-0.849644
0.493100	-0.860030
0.493200	-0.784727
0.493300	-0.710723
0.493400	-0.758761
0.493500	-0.900603
0.493600	-1.029137
0.493700	-1.093080
0.493800	-1.055429
0.493900	-1.043744
0.494000	-1.063543
0.494100	-1.146312
0.494200	-1.240116
0.494300	-1.304059
0.494400	-1.352421
0.494500	-1.374168
0.494600	-1.400784
0.494700	-1.423830
0.494800	-1.458235
0.494900	-1.495562
0.495000	-1.507572
0.495100	-1.515037
0.495200	-1.507572
0.495300	-1.517958
0.495400	-1.501405
0.495500	-1.484526
0.495600	-1.460183
0.495700	-1.470569
0.495800	-1.462779
0.495900	-1.440383
0.496000	-1.355667
0.496100	-1.302760
0.496200	-1.297567
0.496300	-1.368001
0.496400	-1.459858
0.496500	-1.499782
0.496600	-1.444278
0.496700	-1.370273
0.496800	-1.358264
0.496900	-1.441357
0.497000	-1.555285
0.497100	-1.625395
0.497200	-1.631562
0.497300	-1.593586
0.497400	-1.600402
0.497500	-1.625395
0.497600	-1.656231
0.497700	-1.674732
0.497800	-1.658178
0.497900	-1.663371
0.498000	-1.678951
0.498100	-1.681873
0.498200	-1.666942
0.498300	-1.645519
0.498400	-1.618579
0.498500	-1.627343
0.498600	-1.629290
0.498700	-1.653959
0.498800	-1.641300
0.498900	-1.605271
0.499000	-1.590016
0.499100	-1.509519
0.499200	-1.514713
0.499300	-1.483877
0.499400	-1.464727
0.499500	-1.428049
0.499600	-1.398837
0.499700	-1.356966
0.499800	-1.365405
0.499900	-1.363457
0.500000	-1.363782
0.500100	-1.373844
0.500200	-1.387476
0.500300	-1.368975
0.500400	-1.363133
0.500500	-1.350149
0.500600	-1.327104
0.500700	-1.319314
0.500800	-1.287180
0.500900	-1.291400
0.501000	-1.264460
0.501100	-1.218044
0.501200	-1.141443
0.501300	-0.981424
0.501400	-0.966493
0.501500	-1.016154
0.501600	-1.134951
0.501700	-1.096326
0.501800	-1.025243
0.501900	-0.900928
0.502000	-0.841529
0.502100	-0.870417
0.502200	-0.900603
0.502300	-0.932412
0.502400	-0.885023
0.502500	-0.798035
0.502600	-0.718512
0.502700	-0.682159
0.502800	-0.665281
0.502900	-0.664632
0.503000	-0.646131
0.503100	-0.623735
0.503200	-0.594522
0.503300	-0.585109
0.503400	-0.562064
0.503500	-0.552002
0.503600	-0.544537
0.503700	-0.586408
0.503800	-0.615295
0.503900	-0.653596
0.504000	-0.650999
0.504100	-0.662035
0.504200	-0.660412
0.504300	-0.701310
0.504400	-0.804202
0.504500	-0.879505
0.504600	-0.876584
0.504700	-0.812641
0.504800	-0.740909
0.504900	-0.784403
0.505000	-0.846722
0.505100	-0.910665
0.505200	-0.907419
0.505300	-0.813615
0.505400	-0.749348
0.505500	-0.756164
0.505600	-0.812641
0.505700	-0.831142
0.505800	-0.837959
0.505900	-0.851916
0.506000	-0.818484
0.506100	-0.878531
0.506200	-0.915858
0.506300	-0.967791
0.506400	-0.973309
0.506500	-0.992460
0.506600	-1.025243
0.506700	-1.054130
0.506800	-1.065815
0.506900	-1.091457
0.507000	-1.087238
0.507100	-1.094703
0.507200	-1.153128
0.507300	-1.196297
0.507400	-1.203114
0.507500	-1.167734
0.507600	-1.169032
0.507700	-1.171304
0.507800	-1.192402
0.507900	-1.195324
0.508000	-1.205061
0.508100	-1.219667
0.508200	-1.211877
0.508300	-1.217395
0.508400	-1.213500
0.508500	-1.213500
0.508600	-1.231028
0.508700	-1.225834
0.508800	-1.225185
0.508900	-1.206359
0.509000	-1.207333
0.509100	-1.188183
0.509200	-1.175199
0.509300	-1.170331
0.509400	-1.182989
0.509500	-1.232975
0.509600	-1.342035
0.509700	-1.403381
0.509800	-1.366703
0.509900	-1.296269
0.510000	-1.250503
0.510100	-1.313472
0.510200	-1.471543
0.510300	-1.584822
0.510400	-1.638703
0.510500	-1.608842
0.510600	-1.593586
0.510700	-1.654932
0.510800	-1.759448
0.510900	-1.869806
0.511000	-1.906808
0.511100	-1.939591
0.511200	-1.936346
0.511300	-1.932775
0.511400	-1.966856
0.511500	-2.011973
0.511600	-2.038589
0.511700	-2.064880
0.511800	-2.086303
0.511900	-2.116489
0.512000	-2.152193
0.512100	-2.185625
0.512200	-2.203802
0.512300	-2.215162
0.512400	-2.251191
0.512500	-2.260929
0.512600	-2.275535
0.512700	-2.208022
0.512800	-2.156737
0.512900	-2.180432
0.513000	-2.268394
0.513100	-2.332661
0.513200	-2.340127
0.513300	-2.233988
0.513400	-2.175563
0.513500	-2.153492
0.513600	-2.257683
0.513700	-2.340776
0.513800	-2.373884
0.513900	-2.338829
0.514000	-2.319354
0.514100	-2.319354
0.514200	-2.346294
0.514300	-2.391086
0.514400	-2.412834
0.514500	-2.425817
0.514600	-2.435230
0.514700	-2.437826
0.514800	-2.430686
0.514900	-2.402122
0.515000	-2.368041
0.515100	-2.339153
0.515200	-2.296308
0.515300	-2.280079
0.515400	-2.286895
0.515500	-2.217110
0.515600	-2.171993
0.515700	-2.075267
0.515800	-2.048651
0.515900	-2.053845
0.516000	-1.999315
0.516100	-1.964909
0.516200	-1.894150
0.516300	-1.820794
0.516400	-1.754904
0.516500	-1.708488
0.516600	-1.679601
0.516700	-1.640326
0.516800	-1.611114
0.516900	-1.583524
0.517000	-1.545223
0.517100	-1.497185
0.517200	-1.453691
0.517300	-1.400135
0.517400	-1.370598
0.517500	-1.338789
0.517600	-1.320937
0.517700	-1.301787
0.517800	-1.246932
0.517900	-1.126188
0.518000	-1.011935
0.518100	-1.025892
0.518200	-1.101844
0.518300	-1.130732
0.518400	-1.136250
0.518500	-0.995056
0.518600	-0.935009
0.518700	-0.892488
0.518800	-0.952536
0.518900	-1.007390
0.519000	-1.024918
0.519100	-0.956756
0.519200	-0.893787
0.519300	-0.861329
0.519400	-0.842503
0.519500	-0.865548
0.519600	-0.854512
0.519700	-0.881777
0.519800	-0.876259
0.519900	-0.848345
0.520000	-0.837634
0.520100	-0.822054
0.520200	-0.852565
0.520300	-0.870092
0.520400	-0.923324
0.520500	-0.925920
0.520600	-0.980775
0.520700	-0.971362
0.520800	-1.001223
0.520900	-0.994083
0.521000	-1.068737
0.521100	-1.170331
0.521200	-1.220641
0.521300	-1.181691
0.521400	-1.103467
0.521500	-1.098598
0.521600	-1.173577
0.521700	-1.263486
0.521800	-1.301787
0.521900	-1.267056
0.522000	-1.190779
0.522100	-1.149233
0.522200	-1.182989
0.522300	-1.237195
0.522400	-1.280689
0.522500	-1.298865
0.522600	-1.267056
0.522700	-1.269977
0.522800	-1.273548
0.522900	-1.303085
0.523000	-1.314770
0.523100	-1.307954
0.523200	-1.306006
0.523300	-1.312173
0.523400	-1.312822
0.523500	-1.307629
0.523600	-1.311199
0.523700	-1.304708
0.523800	-1.337491
0.523900	-1.383257
0.524000	-1.397538
0.524100	-1.414417
0.524200	-1.410522
0.524300	-1.399810
0.524400	-1.412469
0.524500	-1.420908
0.524600	-1.430646
0.524700	-1.450121
0.524800	-1.433892
0.524900	-1.432593
0.525000	-1.422207
0.525100	-1.411820
0.525200	-1.397214
0.525300	-1.392994
0.525400	-1.384230
0.525500	-1.395915
0.525600	-1.407600
0.525700	-1.421882
0.525800	-1.429347
0.525900	-1.447199
0.526000	-1.440059
0.526100	-1.466674
0.526200	-1.572488
0.526300	-1.696154
0.526400	-1.733481
0.526500	-1.677004
0.526600	-1.613061
0.526700	-1.605596
0.526800	-1.729911
0.526900	-1.875649
0.527000	-1.951276
0.527100	-1.958417
0.527200	-1.915248
0.527300	-1.895123
0.527400	-1.945434
0.527500	-2.033071
0.527600	-2.119735
0.527700	-2.149921
0.527800	-2.141482
0.527900	-2.148298
0.528000	-2.156088
0.528100	-2.164852
0.528200	-2.184002
0.528300	-2.189520
0.528400	-2.206074
0.528500	-2.215811
0.528600	-2.210294
0.528700	-2.239831
0.528800	-2.232041
0.528900	-2.254437
0.529000	-2.270017
0.529100	-2.288843
0.529200	-2.301501
0.529300	-2.238208
0.529400	-2.178160
0.529500	-2.150895
0.529600	-2.230742
0.529700	-2.325521
0.529800	-2.415106
0.529900	-2.400499
0.530000	-2.310265
0.530100	-2.295984
0.530200	-2.351163
0.530300	-2.471259
0.530400	-2.550457
0.530500	-2.571230
0.530600	-2.516376
0.530700	-2.473531
0.530800	-2.463469
0.530900	-2.493655
0.531000	-2.507937
0.531100	-2.527412
0.531200	-2.511507
0.531300	-2.488462
0.531400	-2.486189
0.531500	-2.477426
0.531600	-2.438800
0.531700	-2.412509
0.531800	-2.402447
0.531900	-2.413483
0.532000	-2.418027
0.532100	-2.397903
0.532200	-2.314809
0.532300	-2.281377
0.532400	-2.206723
0.532500	-2.171019
0.532600	-2.141807
0.532700	-2.079811
0.532800	-2.047028
0.532900	-1.985358
0.533000	-1.928231
0.533100	-1.882789
0.533200	-1.868183
0.533300	-1.843190
0.533400	-1.827935
0.533500	-1.845462
0.533600	-1.836049
0.533700	-1.846761
0.533800	-1.809109
0.533900	-1.810083
0.534000	-1.810083
0.534100	-1.808784
0.534200	-1.834751
0.534300	-1.840269
0.534400	-1.857796
0.534500	-1.784765
0.534600	-1.685118
0.534700	-1.618579
0.534800	-1.688689
0.534900	-1.817873
0.535000	-1.768861
0.535100	-1.740947
0.535200	-1.593262
0.535300	-1.533863
0.535400	-1.504001
0.535500	-1.590340
0.535600	-1.607219
0.535700	-1.571190
0.535800	-1.517309
0.535900	-1.443304
0.536000	-1.429023
0.536100	-1.452717
0.536200	-1.456937
0.536300	-1.451744
0.536400	-1.442980
0.536500	-1.423830
0.536600	-1.418312
0.536700	-1.423830
0.536800	-1.399161
0.536900	-1.447849
0.537000	-1.440383
0.537100	-1.488097
0.537200	-1.473491
0.537300	-1.490044
0.537400	-1.497834
0.537500	-1.449796
0.537600	-1.479333
0.537700	-1.555610
0.537800	-1.623123
0.537900	-1.623448
0.538000	-1.571515
0.538100	-1.467324
0.538200	-1.494913
0.538300	-1.588717
0.538400	-1.671486
0.538500	-1.673109
0.538600	-1.609815
0.538700	-1.536135
0.538800	-1.510493
0.538900	-1.544250
0.539000	-1.598455
0.539100	-1.605596
0.539200	-1.599104
0.539300	-1.554312
0.539400	-1.577357
0.539500	-1.581252
0.539600	-1.597481
0.539700	-1.587744
0.539800	-1.600727
0.539900	-1.620202
0.540000	-1.630589
0.540100	-1.630264
0.540200	-1.624422
0.540300	-1.612737
0.540400	-1.602674
0.540500	-1.633834
0.540600	-1.668565
0.540700	-1.684469
0.540800	-1.668240
0.540900	-1.663371
0.541000	-1.693558
0.541100	-1.699725
0.541200	-1.702321
0.541300	-1.707190
0.541400	-1.719200
0.541500	-1.738025
0.541600	-1.751333
0.541700	-1.749710
0.541800	-1.754255
0.541900	-1.763343
0.542000	-1.768536
0.542100	-1.790283
0.542200	-1.812030
0.542300	-1.810083
0.542400	-1.818847
0.542500	-1.826961
0.542600	-1.846436
0.542700	-1.876622
0.542800	-1.917520
0.542900	-2.041835
0.543000	-2.148298
0.543100	-2.159659
0.543200	-2.076565
0.543300	-2.014245
0.543400	-2.021711
0.543500	-2.147000
0.543600	-2.248919
0.543700	-2.249244
0.543800	-2.183678
0.543900	-2.110971
0.544000	-2.108050
0.544100	-2.197959
0.544200	-2.278131
0.544300	-2.316757
0.544400	-2.323573
0.544500	-2.332337
0.544600	-2.335583
0.544700	-2.379401
0.544800	-2.405044
0.544900	-2.454705
0.545000	-2.482944
0.545100	-2.502743
0.545200	-2.550132
0.545300	-2.581617
0.545400	-2.622839
0.545500	-2.653025
0.545600	-2.669579
0.545700	-2.719240
0.545800	-2.741961
0.545900	-2.750725
0.546000	-2.689054
0.546100	-2.652376
0.546200	-2.669904
0.546300	-2.737417
0.546400	-2.830897
0.546500	-2.876015
0.546600	-2.834468
0.546700	-2.765981
0.546800	-2.770525
0.546900	-2.871470
0.547000	-2.980531
0.547100	-3.048369
0.547200	-3.037982
0.547300	-3.011042
0.547400	-3.007796
0.547500	-3.037008
0.547600	-3.096407
0.547700	-3.114584
0.547800	-3.128216
0.547900	-3.136006
0.548000	-3.133085
0.548100	-3.133410
0.548200	-3.112312
0.548300	-3.061677
0.548400	-3.033762
0.548500	-2.998707
0.548600	-3.000006
0.548700	-3.007471
0.548800	-2.941256
0.548900	-2.857838
0.549000	-2.789026
0.549100	-2.747804
0.549200	-2.709178
0.549300	-2.683861
0.549400	-2.647507
0.549500	-2.599145
0.549600	-2.533903
0.549700	-2.462819
0.549800	-2.406017
0.549900	-2.371611
0.550000	-2.362523
0.550100	-2.339478
0.550200	-2.332337
0.550300	-2.311239
0.550400	-2.300852
0.550500	-2.252489
0.550600	-2.259630
0.550700	-2.242103
0.550800	-2.248919
0.550900	-2.308642
0.551000	-2.290466
0.551100	-2.270666
0.551200	-2.184327
0.551300	-2.076241
0.551400	-2.080460
0.551500	-2.155439
0.551600	-2.291764
0.551700	-2.232041
0.551800	-2.150570
0.551900	-2.008403
0.552000	-1.966532
0.552100	-1.999964
0.552200	-2.038589
0.552300	-2.080136
0.552400	-1.980813
0.552500	-1.912976
0.552600	-1.854875
0.552700	-1.863314
0.552800	-1.865262
0.552900	-1.867209
0.553000	-1.912651
0.553100	-1.879219
0.553200	-1.889606
0.553300	-1.887658
0.553400	-1.905186
0.553500	-1.881816
0.553600	-1.915572
0.553700	-1.936995
0.553800	-1.937968
0.553900	-1.943486
0.554000	-1.917844
0.554100	-1.929529
0.554200	-1.891228
0.554300	-1.940241
0.554400	-2.071047
0.554500	-2.125253
0.554600	-2.117787
0.554700	-2.053195
0.554800	-1.999315
0.554900	-2.051248
0.555000	-2.141482
0.555100	-2.214513
0.555200	-2.222952
0.555300	-2.157711
0.555400	-2.103830
0.555500	-2.104155
0.555600	-2.157062
0.555700	-2.200232
0.555800	-2.216461
0.555900	-2.212566
0.556000	-2.202828
0.556100	-2.202504
0.556200	-2.199258
0.556300	-2.201530
0.556400	-2.195363
0.556500	-2.187573
0.556600	-2.194714
0.556700	-2.180432
0.556800	-2.163229
0.556900	-2.134990
0.557000	-2.101234
0.557100	-2.077539
0.557200	-2.125902
0.557300	-2.140508
0.557400	-2.127525
0.557500	-2.060661
0.557600	-2.056117
0.557700	-2.066179
0.557800	-2.062284
0.557900	-2.058713
0.558000	-2.034370
0.558100	-2.031124
0.558200	-2.034045
0.558300	-2.056441
0.558400	-2.083706
0.558500	-2.103506
0.558600	-2.111296
0.558700	-2.123305
0.558800	-2.135639
0.558900	-2.157387
0.559000	-2.160957
0.559100	-2.195363
0.559200	-2.221654
0.559300	-2.206074
0.559400	-2.235611
0.559500	-2.308967
0.559600	-2.444967
0.559700	-2.501445
0.559800	-2.483593
0.559900	-2.392385
0.560000	-2.380700
0.560100	-2.479698
0.560200	-2.611154
0.560300	-2.715670
0.560400	-2.710477
0.560500	-2.672176
0.560600	-2.639393
0.560700	-2.695546
0.560800	-2.780587
0.560900	-2.847127
0.561000	-2.878936
0.561100	-2.853943
0.561200	-2.843232
0.561300	-2.828301
0.561400	-2.851022
0.561500	-2.872769
0.561600	-2.888024
0.561700	-2.901981
0.561800	-2.923079
0.561900	-2.940931
0.562000	-2.938335
0.562100	-2.969495
0.562200	-2.988645
0.562300	-2.986698
0.562400	-3.054211
0.562500	-3.070440
0.562600	-3.065247
0.562700	-2.999032
0.562800	-2.991891
0.562900	-3.025323
0.563000	-3.126269
0.563100	-3.208713
0.563200	-3.169439
0.563300	-3.084722
0.563400	-3.007796
0.563500	-3.000655
0.563600	-3.088942
0.563700	-3.171386
0.563800	-3.207415
0.563900	-3.175606
0.564000	-3.136006
0.564100	-3.127892
0.564200	-3.136980
0.564300	-3.161649
0.564400	-3.168465
0.564500	-3.162622
0.564600	-3.174957
0.564700	-3.165219
0.564800	-3.143147
0.564900	-3.100951
0.565000	-3.041228
0.565100	-3.021104
0.565200	-3.012989
0.565300	-3.002602
0.565400	-2.981829
0.565500	-2.897112
0.565600	-2.833819
0.565700	-2.758840
0.565800	-2.707231
0.565900	-2.678018
0.566000	-2.621216
0.566100	-2.565712
0.566200	-2.514104
0.566300	-2.485216
0.566400	-2.419001
0.566500	-2.406017
0.566600	-2.379077
0.566700	-2.373559
0.566800	-2.343048
0.566900	-2.338179
0.567000	-2.328117
0.567100	-2.307344
0.567200	-2.269692
0.567300	-2.274886
0.567400	-2.278456
0.567500	-2.283000
0.567600	-2.311564
0.567700	-2.300203
0.567800	-2.241778
0.567900	-2.159659
0.568000	-2.058389
0.568100	-2.142456
0.568200	-2.256384
0.568300	-2.329740
0.568400	-2.315134
0.568500	-2.214838
0.568600	-2.118112
0.568700	-2.109997
0.568800	-2.182379
0.568900	-2.235286
0.569000	-2.193091
0.569100	-2.116489
0.569200	-2.034370
0.569300	-2.008403
0.569400	-2.004508
0.569500	-2.015544
0.569600	-2.023009
0.569700	-1.991849
0.569800	-1.961014
0.569900	-1.955820
0.570000	-1.959715
0.570100	-1.963286
0.570200	-1.973997
0.570300	-1.989577
0.570400	-1.997043
0.570500	-2.007429
0.570600	-2.020412
0.570700	-2.020737
0.570800	-1.993797
0.570900	-1.991525
0.571000	-2.071372
0.571100	-2.166799
0.571200	-2.183353
0.571300	-2.117787
0.571400	-2.023009
0.571500	-1.987630
0.571600	-2.060661
0.571700	-2.170370
0.571800	-2.188547
0.571900	-2.158685
0.572000	-2.084680
0.572100	-2.053195
0.572200	-2.066179
0.572300	-2.122656
0.572400	-2.138885
0.572500	-2.141807
0.572600	-2.114217
0.572700	-2.108699
0.572800	-2.115191
0.572900	-2.121358
0.573000	-2.115840
0.573100	-2.103181
0.573200	-2.099286
0.573300	-2.140184
0.573400	-2.146351
0.573500	-2.147974
0.573600	-2.140833
0.573700	-2.137587
0.573800	-2.205100
0.573900	-2.268069
0.574000	-2.305396
0.574100	-2.327144
0.574200	-2.302475
0.574300	-2.319029
0.574400	-2.329740
0.574500	-2.329416
0.574600	-2.329740
0.574700	-2.322275
0.574800	-2.318055
0.574900	-2.324871
0.575000	-2.331039
0.575100	-2.325845
0.575200	-2.335907
0.575300	-2.332661
0.575400	-2.344022
0.575500	-2.338504
0.575600	-2.356031
0.575700	-2.360251
0.575800	-2.381024
0.575900	-2.401149
0.576000	-2.402771
0.576100	-2.432309
0.576200	-2.530333
0.576300	-2.665035
0.576400	-2.688405
0.576500	-2.614075
0.576600	-2.525139
0.576700	-2.498524
0.576800	-2.614400
0.576900	-2.723460
0.577000	-2.764358
0.577100	-2.700415
0.577200	-2.607908
0.577300	-2.585187
0.577400	-2.617646
0.577500	-2.693598
0.577600	-2.725408
0.577700	-2.719890
0.577800	-2.703660
0.577900	-2.684835
0.578000	-2.673150
0.578100	-2.682887
0.578200	-2.714372
0.578300	-2.733522
0.578400	-2.766630
0.578500	-2.801036
0.578600	-2.830248
0.578700	-2.819861
0.578800	-2.837389
0.578900	-2.861408
0.579000	-2.871795
0.579100	-2.933790
0.579200	-2.954564
0.579300	-2.933790
0.579400	-2.879910
0.579500	-2.899060
0.579600	-2.954888
0.579700	-3.058106
0.579800	-3.109066
0.579900	-3.078230
0.580000	-3.013963
0.580100	-2.993514
0.580200	-3.048044
0.580300	-3.148990
0.580400	-3.207415
0.580500	-3.199300
0.580600	-3.150937
0.580700	-3.111663
0.580800	-3.108417
0.580900	-3.107768
0.581000	-3.111013
0.581100	-3.117830
0.581200	-3.108741
0.581300	-3.102574
0.581400	-3.088942
0.581500	-3.039605
0.581600	-2.986049
0.581700	-2.935089
0.581800	-2.908473
0.581900	-2.909447
0.582000	-2.906525
0.582100	-2.888349
0.582200	-2.832196
0.582300	-2.810449
0.582400	-2.747804
0.582500	-2.743584
0.582600	-2.722486
0.582700	-2.706257
0.582800	-2.703336
0.582900	-2.684185
0.583000	-2.644911
0.583100	-2.629980
0.583200	-2.638419
0.583300	-2.632252
0.583400	-2.642963
0.583500	-2.646858
0.583600	-2.634524
0.583700	-2.643937
0.583800	-2.603364
0.583900	-2.605312
0.584000	-2.589082
0.584100	-2.597522
0.584200	-2.635822
0.584300	-2.604338
0.584400	-2.604987
0.584500	-2.505989
0.584600	-2.421597
0.584700	-2.359926
0.584800	-2.486189
0.584900	-2.598495
0.585000	-2.625111
0.585100	-2.570581
0.585200	-2.479698
0.585300	-2.434256
0.585400	-2.463144
0.585500	-2.523192
0.585600	-2.587135
0.585700	-2.560194
0.585800	-2.493330
0.585900	-2.428089
0.586000	-2.411860
0.586100	-2.434905
0.586200	-2.433607
0.586300	-2.447564
0.586400	-2.444643
0.586500	-2.444643
0.586600	-2.454705
0.586700	-2.444967
0.586800	-2.463144
0.586900	-2.481970
0.587000	-2.498848
0.587100	-2.523192
0.587200	-2.532929
0.587300	-2.517674
0.587400	-2.470934
0.587500	-2.436204
0.587600	-2.439449
0.587700	-2.548185
0.587800	-2.606935
0.587900	-2.597197
0.588000	-2.523517
0.588100	-2.480672
0.588200	-2.500796
0.588300	-2.614075
0.588400	-2.670553
0.588500	-2.699441
0.588600	-2.651727
0.588700	-2.587135
0.588800	-2.594600
0.588900	-2.642963
0.589000	-2.670878
0.589100	-2.684185
0.589200	-2.682887
0.589300	-2.672500
0.589400	-2.706257
0.589500	-2.725732
0.589600	-2.761436
0.589700	-2.756568
0.589800	-2.769226
0.589900	-2.794544
0.590000	-2.844854
0.590100	-2.844205
0.590200	-2.831222
0.590300	-2.838363
0.590400	-2.840635
0.590500	-2.912693
0.590600	-2.958134
0.590700	-2.983452
0.590800	-2.965275
0.590900	-2.938335
0.591000	-2.974363
0.591100	-2.975986
0.591200	-2.999356
0.591300	-2.998707
0.591400	-3.002602
0.591500	-3.023051
0.591600	-3.013638
0.591700	-3.018182
0.591800	-3.023051
0.591900	-3.035061
0.592000	-3.033762
0.592100	-3.038956
0.592200	-3.048044
0.592300	-3.037333
0.592400	-3.073037
0.592500	-3.086994
0.592600	-3.106145
0.592700	-3.091214
0.592800	-3.162622
0.592900	-3.299922
0.593000	-3.394051
0.593100	-3.396323
0.593200	-3.320370
0.593300	-3.292781
0.593400	-3.337898
0.593500	-3.476820
0.593600	-3.601136
0.593700	-3.632621
0.593800	-3.590425
0.593900	-3.548878
0.594000	-3.556993
0.594100	-3.619962
0.594200	-3.668326
0.594300	-3.688450
0.594400	-3.641710
0.594500	-3.632297
0.594600	-3.629700
0.594700	-3.613471
0.594800	-3.623208
0.594900	-3.631647
0.595000	-3.628402
0.595100	-3.635542
0.595200	-3.674493
0.595300	-3.714741
0.595400	-3.736488
0.595500	-3.732593
0.595600	-3.753042
0.595700	-3.774790
0.595800	-3.824127
0.595900	-3.840356
0.596000	-3.782255
0.596100	-3.764078
0.596200	-3.794589
0.596300	-3.869893
0.596400	-3.939030
0.596500	-3.919879
0.596600	-3.845225
0.596700	-3.765701
0.596800	-3.781606
0.596900	-3.850418
0.597000	-3.920204
0.597100	-3.956233
0.597200	-3.940328
0.597300	-3.872814
0.597400	-3.855287
0.597500	-3.866323
0.597600	-3.890342
0.597700	-3.875736
0.597800	-3.853664
0.597900	-3.805301
0.598000	-3.782904
0.598100	-3.770895
0.598200	-3.738111
0.598300	-3.671247
0.598400	-3.639762
0.598500	-3.619962
0.598600	-3.594645
0.598700	-3.587179
0.598800	-3.537842
0.598900	-3.461240
0.599000	-3.382366
0.599100	-3.360294
0.599200	-3.342118
0.599300	-3.330433
0.599400	-3.299922
0.599500	-3.255778
0.599600	-3.225592
0.599700	-3.177229
0.599800	-3.163596
0.599900	-3.158403
0.600000	-3.167816
0.600100	-3.167491
0.600200	-3.197678
0.600300	-3.194756
0.600400	-3.207740
0.600500	-3.214880
0.600600	-3.232408
0.600700	-3.254480
0.600800	-3.260971
0.600900	-3.294079
0.601000	-3.300895
0.601100	-3.308361
0.601200	-3.182747
0.601300	-3.100302
0.601400	-3.092188
0.601500	-3.213582
0.601600	-3.298948
0.601700	-3.282719
0.601800	-3.189563
0.601900	-3.086345
0.602000	-3.040903
0.602100	-3.118154
0.602200	-3.136006
0.602300	-3.207740
